-0.37405324136671941,-0.14904691370607087,-1.7229911852212705,-0.36417255635306617,0.65121180609352014,-1.8927901687764637,1.5147129313152956,1.2189830007747617,-0.56926192430600575,1.2092751961435879,0.78548066259631821,-0.64882305869979084,-0.96974083361391417,-0.1130344549175832,1.8864799769983862,1.0054483331745383,0.71058989934261008,1.0289121097004541,-2.1457407957431345,-0.023989634216211603,0.65534930213865927,-0.17770432591979049,0.52823780438830359,0.80695849214092308,1.1860095361656169,0.0068267179209304833,-1.9759128847395779,-0.47141072986168597,1.945736465449722,0.95071288059268999,-0.5120500050007939,-1.4843395309242977,1.6606314331094207,-2.1758595766539028,-1.1839179786795533,2.1563017154603079,1.1614467397110568,0.99564748636642819,-1.2912138870849579,0.64744379049137613,-0.14880050590402483,-0.2487097424834975,0.97932669853024334,0.92269935451260932,-0.12780095816535358,-0.11010981206070121,0.38417580719857036,-0.32747663263020221,-1.0168622119061403,0.97448521159475776,-0.84316002089576514,-0.53148700609500821,1.6723772650898421,0.018138842835783785,0.59236188703438841,-1.5027150367305233,-0.83570922691412275,-1.2344231749569616,-0.0081966813272582595,1.3209688426208879,-0.33618541066590391,-0.49936540693584774,1.0303951760027874,-0.98648959494803456,-1.1425918773490311,-0.66589264898372569,1.0693434316944193,-0.592226123770065,0.84636589921844896,0.037657427753186277,1.5992116838980093,0.029858430208058975,-0.022878206368525455,2.3927136620396983,0.93101398469113761,1.2454334120097001,-1.1284458216073365,0.30640856253960519,-1.1181857809972671,-2.0984366229068248,0.6834871652817367,0.35896279237282847,2.2291685607641569,-0.07433839893499164,0.068988313063600745,-0.23449479241721707,-0.4261862844353137,-0.61434083458978805,-0.28151375799265138,-0.60818061230967979,1.2626272491414114,0.6274455995869912,-0.66856864212149714,-1.0101911608538336,-0.50624848364739961,0.90364974711529744,0.78174500989531281,0.91222149342501935,-0.50290413642323017,0.10217666273082054,0.62391750811659441,1.3275306963554825,-1.4595488189340331,1.6047502956423381,-0.24809172556272055,-1.2372282424466803,-0.52142561384788477,-0.79520857205886275,-0.55948724121025251,1.4056535556286935,-1.0105128971971424,-0.29365181531726742,-1.5192486836048611,0.50663676209018271,-0.98486538745975516,1.1945919707731096,0.67539230529809446,-0.51761686497255011,0.44161078426967737,0.098014512113931265,-0.36743472250562903,0.44653160790626101,1.8967066617858908,-0.38301468977394293,0.60195710751071407,0.81445340449925663,-1.3729012796887035,0.63123283565482691,0.048868703395373934,-0.057022766822458076,-0.77737350439521957,1.5518824659260375,0.55890378225448223,-1.487817526858521,-0.12245949760965144,2.4905746907695789,0.15907399649246029,-0.59836764564908684,-0.30152535375764822,2.7725797181887648,-2.0987330959525292,-0.30873552166282386,-1.0290346102067058,0.1085052284882885,-1.1962800390400707,-1.243103843589757,-0.52484168117866259,-0.0087557193386188503,0.63727252041226334,0.29627662366112845,-0.24460956865768918,-1.2394483554587135,0.56570937495813034,1.3049330362364253,0.48280625579201714,1.907580125739013,-0.87937849721645167,-0.27625257608755016,0.089177554251194266,-0.95600495237549343,1.1042922214812516,0.39274356552050377,-0.21748332562131706,0.38116789610351337,-0.64604174827332439,0.7448567159281706,-0.55857669491393713,-0.14356512918718023,0.14341180581922128,-2.4623010870826705,-0.029203922143518107,-0.77294518388669942,-1.2724529531102806,0.84579944814786656,-0.11331343612101934,0.5743077774136911,0.45292722065824681,0.97956634081429816,-0.703832527977581,-0.47810345046709107,-0.6892254339800451,0.58447114293734337,-1.195822834564757,-0.87916828605836839,-0.047527084238443131,-0.78986808151644772,0.60527373053467592,0.32246151834783149,-1.6466628991048664,-0.5972189804072896,0.18519447510159687,-0.59215758625648929,0.082804765227796076,-1.1078156282584586,0.8841483642231398,0.81931176209683976,-0.65519075183720732,-0.1177189228421297,1.4087921995811086,-0.953629508881773,-1.7139419750194793,0.27233102553299182,-0.27613939210201449,0.86762988040472022,0.21594054853494099,1.1225203564916753,-0.63455431201665402,1.3281446334045572,0.29146239311233946,0.87715129265097247,-1.230112711206413,0.828345302060702,-0.82786843432915325,-0.25887874725274701,0.40476987488941457,0.36258549434662485,-0.59820133997404912,0.78919370808675227,-1.1423861093347323,2.028698005277366,-0.70271154379877065,-2.6227593694281799,-0.39967164324483057,1.0800775931057529,-0.020552807978367778,-0.88045383694328738,-0.14491625082686907,-0.80527355193019834,0.5006481321128875,-0.14468706367035894,0.78093273827006104,-0.37302863680631637,0.22378316971036141,-1.086357894214447,-1.1281885963806537,0.12617551000980873,0.071578179620122723,-0.56101964179201202,1.1672160721645219,1.503275007227576,-0.11907627284423074,-0.79758176584148777,0.86090364464674773,0.17499353772933723,2.5345978941687028,-0.812692846069209,-0.4957404084769606,0.41431994876475459,-0.26468670426017804,-1.7337564268035823,0.75204984142102316,0.97935346902356513,-0.0061387950056287204,-1.0705346676960428,1.1393277973604099,-0.93031820016052769,0.76134515384155954,-1.0529718943806348,-0.80408354952160244,-1.4162222710682995,0.25950164762403582,-1.5130852987631134,-1.53985358668567,1.2330641234606521,-2.5464960271730486,-1.5542889439264609,-1.2300111422596351,-0.03325433882062593,-1.2882084306660082,-0.45664454564633256,-1.0854022059858519,0.092765974744746418,0.067508670441295035,-1.1876847118811811,-0.5618560449965968,1.3366042863862004,-0.17897718253693645,0.11847896047047662,-0.43995387253154433,-0.33905842678337889,1.4345836691432745,-0.16481846515254309,0.20234461822519645,1.127292605748685,-1.0445618646050381,0.69402187412246585,1.3710326616780864,0.36710496182172847,-1.1703769034635358,0.2470620869328928,0.077294752688898266,1.7534468571097377,1.1468616102477864,-1.8794166308990417,0.15281271578748537,0.21378767083410244,0.57617696687336739,0.2474714320307527,-0.70104546398818579,-1.359963989389424,1.0252789818395573,0.13768314875730847,-0.15260738444303848,2.3080463073253417,-0.067952323109065293,-0.20936327725893458,0.39921141637913959,0.4142655752079123,-0.93320754109097226,0.4963900946906481,0.34716851048164782,-0.76677235337481087,1.4225420288995636,2.4421897380551947,0.8905280270880428,0.13948691891151374,1.0643903454879933,1.056943654293377,-0.2268490076782369,-1.0486622187559211,0.65344530784637311,-0.058625881960813531,0.16923581336282642,-0.21651887859957589,0.8189980262798382,-0.90415033088653662,-1.0155478740429869,-1.0538134059764055,0.67420583321030525,2.2807766907804767,0.86704201039077966,-0.24182268110128388,-0.43826207099721759,-0.73503229833232631,-0.75963216623148822,0.58726522172721285,0.29345312818399588,0.35098706551383341,-0.31652048021803425,1.0251598666049695,-2.896739224850196,-0.012400633879550838,-0.0056929287115560778,-1.3044785029505537,0.77673376137869365,-0.54056778558759055,-0.70355601474718721,0.093668655626267625,-0.18107476840090778,-0.64747010737886823,0.69498436172223643,-0.045168101836117198,-0.094197351157447734,0.81715029256139571,1.3180463531766486,-0.95627339540477696,-0.56626380733793036,-0.19014069082149912,0.85165300022093082,-0.036190040578797017,1.7850066240207874,0.53742229025313748,-1.2750443857142437,1.3094951996663338,0.35821350987294132,0.10488080370201311,0.53825156423770781,-0.81070565761413527,0.56948635343531018,-1.0437853617804251,1.240274839315741,-0.62561785368026057,-0.040494025412474197,-0.93417791392906202,-1.3891580172524649,1.0277010605971952,0.96203105487931406,-0.45380653069534643,-1.0607013818480362,-1.5397197584846398,-1.0210486222781741,0.044973804549797033,0.90431189748030616,0.033585638760288,-0.91631735777807222,1.3832120978055631,-0.72833701138589457,0.27271927332852702,0.79796781430118702,-0.52432335082707815,-0.29024574305251333,-0.38544023044565523,0.49575955410319822,-0.47868948255806099,-0.06450373470221199,-2.126330817203669,-0.83171361922974585,0.94179386127554809,-1.6569634424698476,-1.276570431902099,0.1674775979639134,0.50912356415443005,-1.9364042244782733,-0.13241671295281421,-0.67304051024147926,0.5378094385040425,-0.78115329450788773,-1.2916265073526862,1.4835918141859621,-0.72697222643658488,1.2346117553462492,-0.066260881828144283,1.044393336249906,-0.33130766234777576,0.30549218799624123,-0.70378358413525877,-0.87779489998438753,1.8472551134118504,0.53582012284974867,1.6656033025804857,0.068585039176829524,-2.1170222861710402,0.24101044393603249,-1.2743960546469455,0.73449136900069423,0.3690871527689894,0.94629774704586755,-1.1663571500127961,1.6673996994729077,0.2726237995880868,1.023950260815309,-0.35076368200050878,-2.2436664864435678,2.9233075415846992,-0.72844586572836167,0.038803297068541638,0.044825156061378955,0.50712775762468898,-0.082993090774632641,0.87288247082344594,0.75618558266275493,0.20782524374732386,0.044258495436584028,1.5942261337513943,-2.3279879858630874,1.8565989060410018,0.66539448276447655,0.22181227767302156,-0.81091197617281541,-1.736672241829883,-0.36033642352790907,-1.3979863001102513,-0.085580294339704793,3.5929425202722518,0.42035237567441663,-0.95592202927246828,-0.83995460171090186,0.77431794589876668,2.174769533133238,-0.81853332512011112,1.1849975041015095,0.98872307159198025,-1.0603900830793673,0.97504278375486608,-1.1607307694616145,1.3281635685655582,-0.90542531995649123,-0.78331319557343138,-0.21781555852285517,2.0802306735165588,-0.64399589163223725,-0.074889728703545461,-0.45665297571682306,-0.96538548020952952,0.62938341716908974,-2.1905994773410069,0.78754332506367175,-0.7643365973035452,-0.07232898615808965,-1.2259334990689923,1.3847566631982644,-0.52576823309299781,0.81747673961807166,-1.0531295586463185,-0.43288321606805208,0.35977905512485286,-0.35245553557480552,1.7965477231864149,-0.090642249754012347,-0.7749469908985126,0.6887677543233508,-0.673621951057498,-0.33544109699458347,-0.36262078231656564,-0.31406991588050892,-0.81931866428279132,-0.42091922779492313,-1.1288876629966433,-1.7034238252370124,-0.2240939591345118,0.88656813340970297,-0.35969239824746135,0.7599323979796474,0.20492270980655175,-0.59549552627877711,0.74185853754606457,-0.11418209429668028,0.78703491393109382,-0.54765050469305487,0.73293923184487342,-0.31454242567346685,0.34053092604426888,-0.53007960449684322,-1.5637939145508282,0.0296634300972436,0.30840163902008288,-0.98933964874984925,-1.2544715072952561,-0.46194756200304532,1.4755005012516451,-1.0993845011652985,0.29935709091835611,0.64654070836144317,-1.764436937425542,-0.40362456930626167,-1.9741317317451597,0.84624426243325257,-0.72222226020878066,-1.4926455807545538,-0.82448890139105602,-2.0206366754297926,1.589965260982287,0.87079242551548119,-0.92610333095592068,0.80420774231462722,1.1823272506904696,-0.65199250590624136,-0.4825598602216607,-1.2358227984279588,0.50566194467755254,-0.52057535979392666,0.53694203068212154,-0.21841391072669178,-0.77600023678978192,0.89432801045912313,0.22454569195429053,-0.24726658322396833,1.0228747681464623,-1.3244789450245822,-1.3160242193468152,-0.43028141684699223,0.077141668544282907,-1.1172972799072414,1.0179991489192113,-0.62333541712862106,-1.6182323446539526,0.3947742946725557,0.16535717843380265,0.34543927420272164,0.56221657101660494,0.98911699510076179,-1.2681966166051926,-0.7211922902582274,-1.7526806502465628,-1.8056049096950946,-1.4298168527930142,0.65236020037921061,0.81288873093258573,1.1914963247835582,-1.1980444000677548,-1.3336731328794396,1.9760301808647109,-0.50273262085274462,1.5938060087839638,0.61234504086540853,-1.186379632996762,-0.61583380656473663,-0.57047835588175788,0.099274056352826753,0.82098342608601804,0.95630277576250455,0.087730511361001809,0.75376748502419977,-2.9470547220596348,-1.6223866341201265,0.24205895553181395,1.154947236642424,-0.87756065135539596,0.01483285836573728,0.025407956720505467,-0.40616410539221653,-0.11564357318242627,1.0939952323375033,-0.39165748292768504,-1.4026454042977601,-0.53138716229718153,-0.76739289983447434,0.28621626665225514,0.789771231505911,-1.4056040805181826,0.41530672035473809,-1.1285061581285059,1.3869873862062161,-2.4339369381800848,0.14718877089720089,-0.068945428154091618,-1.0020691502096795,0.17138445020792314,-1.2007847153157434,-2.073337441694119,1.4905653817337035,0.60994231735475013,0.38764644899346706,1.6171584242931929,1.3323780967470606,-1.1224288475590363,0.13248915886355184,-1.6730543149498145,-0.83192023571011076,-1.5212836401554868,1.486964760901651,1.1552497959987365,0.52615717128025885,-0.59561629279317796,-0.73971959551681665,-1.0743173792788612,-0.80264498034979781,-0.93982724690934205,0.71058382554097288,-0.70142832321831661,0.07693838735282825,-0.53228930512712824,0.73044217374198994,-2.0642572955177574,-0.21052101407712231,0.84157223199572107,-1.6042307155268101,0.62416479688170257,-0.43499676018816297,-0.17260490669665129,-1.4111462979822769,-0.77638052564016791,-1.5224473012229147,1.1926776013698754,-0.44929526569296063,-1.3389562349290278,-1.1868363142677276,0.27854170086244018,-0.48079090061349666,0.62643609331417593,-0.040216888057643889,0.57474543129747491,2.5392155655160282,-0.77271312489335675,0.35748523357750173,0.82894459589527925,0.27798247592622299,0.19606460191127464,-0.74672328674835731,-1.0504185298981854,0.14217345668322712,0.72116828333203908,-2.0643238076642425,1.1541135334829429,-0.11349349875921801,-2.1820569770637248,-1.9734187060884498,0.15676899919005421,0.11324786368574945,-2.7543676784668394,0.15315652847712272,-0.56238977914321053,2.0185284059486461,-0.19646235556095556,-1.3648124405331399,-1.5263827626628614,1.9312735699657646,2.2269613023108699,-2.0470047142457313,-0.62239472971594434,0.027839606098200315,-0.95986633128706011,-0.057204172962850477,-0.33317886355091031,-0.67745810779852833,-0.61529441513223915,0.25744889326584236,-0.40874188119543597,0.32416274717082794,1.1193285242056232,-0.092847419163731459,0.95542771696213036,0.044508545429538152,-1.8735453028891114,-0.45508635583162454,-0.22475464119280675,1.2236114580336097,-1.3772037382005429,0.70958819905130199,0.2337978478751237,1.3285387536957654,-0.73262307320988118,-1.0715635988003729,-0.29045517318618536,0.076778335251092691,1.8495767832244443,0.66589869296152215,-2.671149120386668,-0.916602585242979,-1.544889057867707,-1.7014660225845828,-0.52780760708016083,1.1556865632224176,-1.1763235505286644,-0.20250147526328957,0.90101270480119522,-0.63344803347715872,-0.84933018861980691,-1.4562699481915533,0.38759028280460739,0.97556273565484564,-2.2262977659398104,1.6105668315224941,1.0841794491412535,0.16122438869983438,2.2008147040895465,-1.2707189126392577,-0.037540965897545499,1.5204804631708284,0.64863109498672378,-0.30844082660700878,1.3903291295091684,-0.70320009405449624,1.6250327450363626,-0.31855880477034004,0.82561352410088285,0.57736962438995365,0.85811583947932391,-0.68369729942345037,0.54891426685580369,-1.9969615219122592,2.0259583605400144,-0.70596479075520679,0.86204085916608031,-0.48477603678542325,0.78202560891135631,0.71820970396786532,-3.0445965460915985,-0.38529973835326486,-0.050078252343103431,0.58665321449952401,2.7781009735238991,0.65105762414223289,-1.0248215202575621,0.34301794829784643,0.43986248912518255,-2.5490292352359236,-0.62459894315922093,0.74796978163022654,0.61254847180541272,3.2295152970231413,-0.028106039332051202,1.0546400298251792,0.65723429783150222,0.051850768315206769,0.97763009576167692,0.031482433079893381,0.43344409133120326,-0.32898707374165387,-0.21046252655394582,-1.4263840831961971,0.19503921101383515,-2.1849616307160096,1.0556978962994878,0.76234514131683395,-1.8041703153855708,-0.76647425814368242,0.53784650671699075,-1.2478987510509669,-1.1026647970632382,0.40472137226673754,-1.4998762712406295,1.8770848959325357,0.67727974872203245,-0.84226833756869501,0.41764403206678391,-0.65261848164645198,1.4420899004121841,-1.1334476837579521,-0.085427218458567489,0.66424634277043493,0.11273908848940518,1.8272139904180096,0.35725370988107907,1.1494011910101232,0.27271054104371395,-0.38476537465670874,0.21958371722089487,0.60899902701913156,0.17337459960413795,-1.5204634850335732,-0.67847143777066754,0.079360622726092941,-1.6165237592314736,1.0687499753396035,0.030808170704099098,1.0379546180140358,-1.012835407749086,0.2789631268489331,-0.54566954277504764,2.1777856777860447,1.6747129268198304,-0.20602457792255086,-1.4377640701807357,0.32593179494846269,1.278369279564143,-0.73629402898180718,1.2703033710481635,-1.6098261446862725,0.29719078150589323,0.74983267352311933,-0.28943384138739431,0.078848793008431298,-1.349107678996033,0.41765565200703952,-0.82007898166303761,-1.445695036651615,0.50814264308493584,0.92028499488587345,-0.069214105479112581,-0.57562298790359523,1.5791613275556544,-0.23062017924499342,-0.71536962588793163,-2.0221548554666859,0.64362527933542035,-1.7437310759341265,1.1799063980559383,0.84418343509706628,-0.12617908480480203,1.5883174654550614,0.65873707961322692,0.17371292094149551,-1.1776815796226001,-0.55180317964892323,1.0090720151335657,1.3078201110595618,-0.28854849956856077,1.8609090163456772,-0.51991572117656015,0.0050052439096997092,-0.092030177314196659,-0.6121054629964825,0.15520408686825221,-0.67105733343395124,2.1349485934407668,-0.82282369988312065,0.31178933319966917,0.79574486970683056,0.4744103347453405,0.77800703746466338,0.70439183549905993,-1.1435543405568183,1.3990575088724586,0.7331241891100565,0.89739667926140532,-0.57151938929259072,-1.6777828405648245,-0.56416463205858325,1.2523243703972904,0.093754982012742002,-2.2479499648057613,0.72714488826406243,0.25962187717229707,0.07816207619845468,-0.3464714849722787,0.45586614450304236,-0.47032362748646245,-0.19491358470499406,-0.61618681877294834,-0.43207257506284885,0.55752394527473181,0.52016135599352742,1.1862902582967474,-0.61346684007491381,-0.33563335211363898,-0.76325202027019601,-0.73947023449353466,0.43366950161754536,-0.095999872677047515,-0.016348308737109161,1.1332628162037675,1.0220536322927534,-1.0858158693905977,0.65676974836799107,0.06977142054125432,1.5475761938927928,1.1308411622536905,-0.1028207133370254,-0.14369397153090704,0.46632127069643475,0.025652925550578468,0.47307418641037624,0.60339642716625708,1.2896975349371795,-1.480017360488272,-0.59772133811141714,0.71883145008931371,0.5723119567266689,-0.34344936090929989,0.84715842140732567,-0.92737032353317039,0.70757195328889599,-1.6989360296451159,-0.31266351226810463,-0.3026577136546964,-1.2598980803763722,0.44097680435192477,1.5038238298117095,0.15899352559883381,-0.079253278147442638,1.500331026276333,-0.16870480199202448,-0.44643415919948515,1.7575013719764414,0.12280025825854825,0.78607708297877676,-0.78925893981102957,1.1582955240698987,-0.99280909279678164,1.1097225965176312,-1.037404636838239,0.71226989103078941,-0.35992790350392173,-0.48761596683014086,-0.7897605467687705,-0.71983282573589402,-2.1406836246904217,-0.71700205130370886,-1.4494346622079799,-0.5853783148878553,-1.6274871253689216,-0.88994959586516187,0.5025654206563821,-0.14413888723022017,-0.82161011809815421,-1.6053726738265182,0.97369929233775632,0.048038093137276888,-0.21771054281243801,-0.30902514267747366,-1.3815066977516022,-2.0923328783520021,0.99867952873323085,-1.7570177321947351,0.022873536244671009,-0.97313670743315983,-1.1512313200074775,0.9700772003784317,0.042714593786616531,0.25651248873623717,1.3370209348039384,-0.23895060281917155,0.66005262303471901,0.17637886983418202,1.2648772612955677,1.5152829143089785,0.19901507188211726,-0.60722525438875685,-1.670120081029919,1.5923528407400769,0.70287903500813509,-0.83503075941848448,-1.0410460376632014,-0.81609136382304326,1.2266053329405022,-0.41117814946933839,0.089384551757303393,0.417800124564986,0.56850440042492456,-0.49963643759519238,0.028978059530127692,0.5615770939951934,-1.3041055055830084,0.22012398457815435,-0.09241688733189779,-0.27703469891829052,0.79021732000216793,0.62910708406297977,-1.6554869402696184,0.47692212795926936,0.95519234502050354,1.1597949380891586,2.852238710205957,-1.3851323701176106,1.215611286919114,-0.98069158738842854,-0.23004966016854098,-0.41781933030130258,-1.0121557401932195,-0.61464568611005466,1.3578400074409824,0.41712221066144567,-0.25929172270662953,-0.56243361027523742,-0.11302032833891879,0.38993511641541034,1.1725850359699586,-0.03637957718608318,-0.31477182103653362,0.4373025374873285,0.99677188695759456,-0.82818385502423608,1.1839663089845318,0.44641736199119697,-1.3194173638118856,-0.99865900183392498,-0.51828920374221221,0.22580976905976052,1.9182067094348585,1.0859231199274613,1.1633583151874409,0.59417103892128298,0.07630861759078561,0.40726076496578317,-1.1134217667497739,0.74521952488546062,-0.44142759002246879,-0.65040909710113604,-1.939744904340432,0.016532441944136136,0.29752505081566688,-0.20408898188331295,-1.5005789614308858,-0.14464699679512313,1.396686311404542,1.2821227816691092,-3.3499141340634941,-0.1713549905097394,0.50930945938738648,0.69863510643491911,1.2544237279789197,0.056022020624057006,1.3938437190044322,-0.52121094371525944,-0.26553605944738545,-0.8305666416060008,0.29399223232831329,1.7268605761163418,1.3222386961730384,0.10661047184758325,-1.4711645762620329,0.33971909534014683,0.40075943039487272,0.69736118967867566,-0.79753240155064242,0.020027957414928074,0.16461853899512982,1.5414170437365458,1.2575000803597678,0.4927696073486707,-0.69839147035522242,0.94489431455731854,-0.012451084318745873,-0.99171217478926454,0.46112348096124151,-0.3744966091260245,0.0065960718162600216,0.9061574053977024,0.40840446920846751,0.2855635793095988,1.3935191961545468,-0.22550347640071872,0.24400995810995277,-1.3371017898878619,-0.12822513128376573,1.6414112639941534,-0.40655133809540961,0.81622384408599613,2.4685967227092971,-0.08875064271909415,0.1600888206268043,-1.1568586663553473,-0.2965016752525218,0.74247553727275895,0.88170070787658295,-0.95080645781668061,-0.23999552777234653,-1.0685849828820795,0.25488851241702293,-0.045132318693666462,1.2898551727071157,1.3118351119275753,0.068900275715000417,-0.9443462278660355,0.63186345067148331,-0.51125385301280613,-1.2737779747336073,0.89067384404846162,-1.4416084905440145,-2.1838129599812279,1.3247435486393153,-0.52785863325291793,0.59706713923620647,0.20227506023453085,1.2694667249517793,-0.10521584934489811,0.30834592238770592,0.33780247946936864,-0.31175142878443984,0.044161980334046488,1.7156950158238831,0.96142386488833753,0.51690497502155297,-1.6155618177236584,-0.95970382938952281,2.4756671551794898,-1.2991353828188914,-0.064724246911199393,-0.24457610295468823,-0.87210884619937346,2.2273014714751627,0.0036866608149007303,-1.7871739490311609,0.37436355258214715,-0.55808671015226319,0.27256911280365459,-1.5802828643977518,-0.42462548571948666,-0.76169457673220997,1.0943896717180892,-2.2099365213034763,-0.8463166033820162,-0.6368403336959596,-1.1731417298204256,-0.74235787016054222,-0.29422032882029608,-0.1308903973463201,1.9221519144661765,-0.53041541404581072,-0.56881093002823491,0.99376211860954355,0.23256988294760902,-0.59755432662993779,-0.00080194722380439864,0.83508383343917869,0.97380334343801678,-0.50764207768508818,1.223863763911514,-0.088180197605188304,-1.4786896088388897,1.264684229974953,-0.63710678125995701,-0.36282823581945733,-1.2157955946817691,-1.2199017497712312,0.30714859964611257,-0.55141162452879866,-0.25053658926089417,1.573696445563036,1.7067604981255855,-1.1098378008260967,1.087133721775303,-0.43557818164799289,0.25705460772931621,-0.74704245298183247,0.5771444822501649,-1.6824238531240103,1.11887139096814,1.2556150495188865,1.5330282783013232,-0.16235336403315592,-1.3644609843222359,-1.3506297718924882,0.41615322978602021,-0.34305349742147356,-0.053480601270077949,0.13859213881292029,0.62361248113118761,-1.135894398452395,0.3603188503015386,0.16459624701939857,-0.48379288537768733,1.0788847928781125,-0.052752608897473567,0.57016598119348405,-0.45358944301009047,0.49970136725027192,0.66260676246549732,2.4698555337818777,-0.27538028429927636,0.27113281096528952,0.58212547008306481,-0.58412926905170981,-0.043052089868110981,0.010382841630257125,-0.68227848257232182,-0.47776711043722275,-0.74587684908770546,-0.71844781295054716,2.6552808291949783,2.3883496796685506,-1.3300631109529828,2.1068751507745382,-1.8644984493258285,0.77486541428186662,-0.50500354775821765,-0.70525478345923798,-1.8724969269437157,-0.20320906117503681,-0.55728593831837214,0.68134566282284381,0.6599136601085015,0.52847083249589777,-0.50153847969263465,-0.028110963868986153,0.49675416913832654,2.3437818596703512,0.26167367092949007,-0.27120891956299548,1.7240637614292442,-1.1222343590039454,-1.0580138535601178,1.5524102052373341,0.50763274412428616,-0.95930243662472459,0.58668701427929382,-1.5723678989236296,-0.23464358433644375,-0.32355284961435488,1.1292518292078797,-0.11637492652246081,1.6674625544094337,0.63341898846446587,2.6614320605424386,0.67140773339872284,-1.1934756700636504,-0.35641933824067545,0.54670260254392788,1.3569907591169923,-0.59182654035940885,-1.091092693674774,1.4824221104328021,-0.17525539856548211,0.43443502274422957,3.4939359642732102,-1.5473942924648949,-0.19161378996950468,2.7428951834104609,-0.55216523031868947,1.8172660175742044,0.52419048751394626,-0.92055426646693705,1.7245859947321966,-0.52676664204424239,-1.0371821339388283,0.38849925196742402,-0.76297560148661703,1.2050087177865676,-2.0984000293969203,-0.33712202222322374,-0.86893933805692591,2.04126598663732,-0.86458581586135153,-0.57916348546463137,0.41518315176843118,0.26240994911298043,1.2429590340912173,0.31879993381460492,0.5017970717016389,1.3809830988160703,-0.015757271800417721,1.4152742208674689,1.2049395961751292,0.31804286165783197,-0.57334160080132357,-0.09476303911490852,0.60078823610937349,0.9952377188363889,-1.5592055922643928,-0.018727376573303246,1.0564852035863177,0.37106990027324416,-0.34284790868963527,2.4366553242985969,-2.3418907200989967,-0.32319078453429934,2.0040178473027068,-0.12143628728768505,-1.240021571972417,1.7876360934185305,-1.1526144955474606,-0.36092660155564255,-0.98951221082244589,-0.49841505748132647,0.025478315908250743,-0.91650725879129669,0.98461423812409987,0.24650746726675812,-2.1191096641253004,-0.10190734633697125,-0.79913430443258071,-2.0102989633817931,-0.65303571302776542,1.3701531765003407,0.4600836338840556,-1.6082613748600691,0.5046714654100295,-0.12914678233815255,-0.33381365269916535,-0.73644464782080676,0.38394951292775858,0.33817233839312033,-1.6088494048952025,0.25119392804314844,-0.54980550689626551,-1.8834043013950843,0.13797021376650653,-0.79618292967231119,-1.0102394125671654,0.65621400780669548,-0.6242308136227751,0.28403228992187007,-0.011318487991091889,2.3011377803934385,0.995607251230749,-1.9271580045650436,0.87503444042201184,-0.12621166179825116,-1.4159583700196239,0.62258132165194491,-0.81500161042102115,-0.8316092141502367,0.96066158871362139,0.96370468242487939,0.98086210336117408,0.055304486270010965,0.59423343911931126,-0.86323448952105075,-1.9728148867105237,-0.579196119470195,2.2894420500164783,-0.34823149439868578,0.3577522974617473,1.9277473292808742,-0.38281614061004932,-0.56729395762518031,-0.31855097300107638,-1.2549013622254874,-0.7711468213221413,-0.71664269642911971,1.5367933955536897,3.2710398808255183,-0.74862137339571955,0.91763981913880943,-0.075995017417160721,-0.36568914864131424,0.59610756998292092,0.75735837145522211,1.0399571274101769,-1.2608632465947547,-0.95878237636752939,1.5173347263283041,0.44766262229321224,0.60339047146916469,-1.2975078621545983,0.087582486350047839,-0.81129930011884754,-1.4127985842087682,0.048590321019814815,0.5233705360015275,1.1723689921374187,-0.6955651973009197,-0.68343578324309662,0.48876566057021564,0.62089096349606443,0.70182224211734834,-1.074444415209413,-1.2085637200109682,0.21867383270937588,-0.086518925803155941,-1.1688804399009372,1.5546460313028632,2.1022839087766214,0.39176107043571179,0.4487170523661474,-0.27596971709963997,-0.58362441686972599,-0.86126047623413327,0.17777071930693472,-1.1250670815293933,-0.030840653613399882,-0.1125459327745142,0.16954216185047619,-1.370606352552884,-1.5239904687165462,1.0689620843683942,-0.69218650903995693,-1.7151014060838379,0.076685170940128458,2.9536425205906123,-0.15823920860197324,-0.47969287694755602,2.0278412005808519,0.83790575153437796,0.33037359466889155,-0.813727489508136,-2.127717020681148,0.57727169493586517,0.012716900408935689,-2.5019471894056413,-1.8964472169140434,0.99623668477174265,-0.97055732876216427,1.6610610758000239,-0.91257076611112298,-0.55898388616017314,0.29497340167565411,0.85097669414028876,0.56672036417065152,1.2017500294334202,-1.1160786813218433,-1.5876115866324669,2.1976029391129166,1.50457413466186,-2.0753282879093908,-0.61173646151777261,-0.23498437373438005,1.2984421828963106,-0.14624395764862108,1.5364935026656208,-0.5961779475798461,1.4671648180018004,-0.32158007650903475,-0.78750978171922004,1.5500827857519424,1.0748302302791934,0.59654106328697643,-0.84821309547944168,0.56805392308632174,-0.071234188917922325,-0.14015090200119384,0.74379716705504728,0.98563991486177582,0.11437141801601383,1.3314140290918306,-0.042707243497464235,-0.67322646514004225,-1.8750510031236232,-1.7125991574037704,0.099963698256112954,-0.30792283286627109,0.4226107631805302,-0.72583652319595782,-1.4022567091799663,1.268767806466085,-0.34900135862645087,0.14587570800807911,0.76132011205170214,1.2281747630477189,2.1777163021866461,1.5955421227465272,0.025215804995430739,-0.14718101387541188,-0.12619472861896228,0.020930572580341204,0.018661088881743042,0.27344518739445478,0.035691230368223588,0.64833654718690947,0.63279849095065277,-2.1560865115608712,-0.14945152804846637,0.10287977247253731,-0.63370216379047706,-0.16821041259280378,-1.0671179925590684,1.3492874157969437,-0.89693767565242555,0.70043615869544062,0.66349898891898884,0.5144930673050403,-0.18376335976328129,1.2702678727767192,2.111813671894522,0.72057534457945849,1.3992193358940526,0.12032789646181186,0.71032035503805524,-0.24972253707992159,-0.33186975064334517,-1.1345306345604749,1.0069989275722926,-0.13081764640961313,-1.1898282627662538,0.5563376504854155,-0.62908916100000412,-1.029462555752636,0.30003927757569754,1.5963936832635781,-1.1277041504881335,0.75931672628808378,-0.51690961961797743,0.034255619396836516,-0.16721841708146659,-0.87119425285917884,1.1056908720927008,0.95958593374169032,-0.75668154404416554,-1.6758181522720021,0.45715237360401573,2.1608372579878821,0.59810156135059245,-1.7211539925203663,0.76343715742545504,0.70859115820567975,1.0277906310930915,2.1978663117507713,-0.28762250897347358,1.5544927013497787,-0.49470437859903682,1.7379659292060732,0.44032600811749656,0.20047598032176717,0.75920941929553487,0.16988893838259056,0.82657019160186296,1.5405393318711869,-1.8222766751492476,0.0068698789296139373,-0.59511431816166005,2.3868551431852905,0.3331891986033399,-0.49747975686963064,1.2441991710347309,0.10346596311305586,0.45120288567552536,-0.77418222701194495,-0.38345507787375149,-1.1384784669879582,-0.30794628547720665,0.15673479467618359,0.0030422909649198554,-0.8225312177244658,1.420693672468067,-1.5968590558675837,0.80046039166851091,0.35196596987687306,1.5308263724717788,0.8860384194399229,-0.86632839796262051,-0.77770514968033178,-0.43350587475408853,0.10636632093104989,1.1264254876894679,-1.0911548366987682,-3.1059867214151797,-0.051356998253605929,0.0010188693922615346,-1.1036418921907656,0.3221160524284063,-1.3807251776238068,-0.78948363400385313,-0.8509619774021151,0.27947341523212499,-1.6632131966335424,-1.210760441102432,-1.2440134251941306,1.554645666647589,1.4790747070232044,-1.0296984020546582,-0.93817966940320929,0.081758792641797695,-0.47105582370408566,0.28593110750391798,-0.80545914734613167,-0.44392116610079524,-0.90567283964431433,-0.016651294964840954,-1.8838758228779282,1.2816317600445584,1.167913746542788,0.53401550011679377,1.201334065211255,-0.25367443961057645,-0.04705654292849927,-1.930965797922098,0.28591670749814913,-0.51098357069558664,-0.8412711627103765,-0.91321480025246293,1.3903179859240016,-0.14995588671841417,-2.1712212384693603,1.4115415662756803,0.55893720817177417,-1.7001012319050282,1.623280499602618,-1.6473789987173035,-0.11170511417638174,0.55126271476851751,-1.0919203716489907,1.6935667351722807,0.68221183871946112,0.30911666044534769,-0.39788075750743379,-0.37506524837574323,-0.51952960774557555,0.50320402909834916,-0.98469127086949571,0.3717039509834848,-0.016847089938038691,1.0868098104214827,1.7080219321252725,1.0173198365840055,-0.1187016704147565,-0.11295917539963944,0.53858949874459683,-1.105193055767101,1.2937543069521862,0.82748089319577889,-0.44881789721563209,1.0215837649308401,-1.3940163749350769,1.4885741650346735,0.40923760203914467,0.57386603789392965,-0.64112753311322679,1.8235077853354682,0.27945892195981609,1.302324767383386,0.31524427717923537,-1.2254147539504494,1.7040748359625677,-0.33776816293042256,-0.013948228075395195,-0.94853320802967234,-0.45555027240619761,-0.46943539846877191,1.3733397708379151,0.24589518417725922,0.35585899934334958,0.41251526740627087,0.32451907879157366,-1.8346720282887126,0.8500176514328025,-1.4200047537321463,1.1988327141712576,2.3338310245722953,0.75083729057028359,1.3534183489281717,-0.089709230226517486,0.2881196835387716,-0.58988675446915795,-1.0998032946719551,1.3555940697175195,-1.5759237978980802,0.0043633587587423237,0.61903763613184748,0.86178765404777513,0.12633807491967752,0.92257609187161937,-1.4247338547647204,-0.39726207030608973,-0.67421191828306448,0.71034092853358133,1.016210837569903,1.0722250184513953,-1.3931927096454382,1.6047129722811397,1.4128726679594359,0.94525685338589016,-1.6838356999342501,0.27138213045561688,0.75140427099986862,-0.68774457169174985,0.13139623576735074,-1.2433826864091133,-0.32367636279524326,-0.44627961449054432,0.27522458613124307,-0.42140801894401103,0.47500995533643026,0.091134375481229324,-0.80419825104389442,0.53338054127293733,-1.0264308004560156,-0.2007955166145402,-0.14894926740842432,-0.18720685132242096,1.4049041078724922,1.5325945274698567,-0.74411304613573714,0.47150093643193314,1.2996342674250412,-0.45959091513856853,-0.48133583940468577,0.090326565205146758,-0.67458768060721586,0.51554783808743054,0.79482265723796752,-0.4564747606822237,0.32509172759057886,1.442654863377707,1.0991889930471321,0.62333284010024093,-0.81582951583326968,2.747958866505896,-0.28625724516109036,0.48127917841418871,-0.60525672355815097,-1.2403820137284769,-0.24979115676517943,1.1422306337857369,0.047529755315330414,-0.25824108198190848,-1.8400153527355765,0.91362583174406042,0.041073628647353762,-0.92259313088288841,0.09290621424960864,-0.31156237337011555,0.79438084371471573,0.49590034111827891,-1.5777062483824582,0.59680812074980683,-0.19269765790083676,-1.0398112804304369,0.87310472524347482,-0.15376438363072359,-2.2822276762736555,-0.23004536831978081,-0.40326836738030136,-0.4982030593502465,0.14322409858913562,0.48021926927726555,0.52684359753017718,0.038596532515343271,0.65998548675717972,0.99160153962790909,-0.21978707897514316,-2.1187010963800774,0.384855769422982,-1.0811228593816045,0.47963187876675034,-1.6169073458267931,-0.47759765305700413,-1.2693622354509484,0.21195637395818659,0.61883921549583287,0.71995452687168815,1.9166430628081539,-0.12842123745232817,-2.1237356998350672,-1.7965844612326796,1.3998326859652936,-1.9285672750248866,-0.056499843014823761,-0.28640328818423183,0.21196285053789632,0.77241988876120193,-1.1371740578074221,0.53437250536448799,0.59122299868713735,-0.60037004888862866,1.3735321396679501,0.24201431985379052,1.0225534230204427,-0.43069365561323231,1.3255319443429976,0.22857348498886351,-0.21188983898983349,1.6077882622772746,0.57630535012408868,-0.38610939766888036,-1.3035933839006888,0.69889615059460475,-0.98642085644709898,-0.26149996027213684,0.66887994293409603,-0.90141259355564662,0.1456024532361386,-0.0057786523035611896,0.58128526393109803,0.87909276317726293,2.3475018280809143,-0.62160893474847045,0.27864249032281385,0.32223379323449436,1.2079627129412973,-0.45528943674585648,-0.58090423088260013,-0.50395600779819361,1.1483504663640087,-0.47815078096875613,0.59126047401937121,-1.0835145739923795,0.029001094599218465,0.087892608425330365,1.455488612952242,0.55982545152799901,0.53809697127936862,-1.0509344438054564,2.5193006454972604,0.93571334226139069,-0.058098423131047086,-0.46205133486295047,-0.3557705981588824,-1.3358406870665529,-0.73623412016967427,2.0861189355793726,0.53365465487828001,-1.1286355127854111,0.33870567651043487,-0.7215599342131741,0.66164420300639937,-1.7126515064692487,-0.80519179960220366,0.18692397907131647,1.551858618486277,1.3796556545712304,-0.81765574082419101,-0.6415673329522642,0.10804113990217826,-0.16577801229125244,-0.047828453077258179,0.07034050825307743,0.26948575072715159,-1.1200266767485163,-0.58096720459433782,1.8153922262474929,0.53532261111330137,0.2661317966589401,0.61712803550158313,-0.14190888424774872,-0.22408608945442474,1.3789856138581631,0.15414828317888765,1.3211756446054235,-1.7881678241111858,-2.3312081329577379,-0.30723230556745379,0.4784375750155393,-0.24816043685588945,0.24060487705451325,0.82639803002601719,0.70181376762489966,2.6255967997757512,-0.37367902191945246,0.23162446986519281,1.7290149121320326,1.3252665480834149,-0.62810713663058038,-1.0861764922776096,0.62360977174784171,0.44967954856001791,0.79794899875664715,0.32503791089227851,-0.90080808965437109,-1.1264284264103541,0.20369991066984849,-0.0737447513504456,-1.4924561232823546,0.17818228694630703,-0.4996987990298557,2.1043867504540148,-1.1518305743771362,0.97009891395135528,1.2548353510070966,-0.1547830728486275,0.3127465891066189,0.27460629721019447,0.30320048878137373,-0.49862583521286996,-0.86206293605782169,-0.50596874004024239,0.95581322110949152,-0.91353439196383623,0.9814524217719901,-0.24705109784907245,-0.37869026940105011,0.065641875678223605,-0.27595852927646508,1.0294884178495531,-0.58440012895054694,1.9439535960505503,2.0483170475084389,-1.0897473682295935,2.0420876005375859,-1.24096532772353,-1.6141860950868441,0.12103674035984013,0.52220800301813608,-0.52542786042602718,-0.42684536606347251,0.13790810892316047,0.90219563971295114,-1.4706597827468548,1.359354508699393,1.3486759895034388,-0.42190541776310159,1.3366508827733443,0.10519434681356099,0.36318789217373076,-0.78421446543922269,0.89906852854184349,-0.2428028581451874,0.50120643482311922,-0.34865344257193914,0.16146030579251386,1.5757113162406928,1.4196116933253498,-0.44110734528378703,0.81056251172459248,-1.9216247275191192,1.0219543878432555,-0.25556352382993314,1.2021215320993532,1.3302446751676582,-0.87508733070867917,0.78634556778352538,0.50393217499411347,0.10174764972172995,0.55532668534298235,1.9006569179384831,-0.72017637196035666,0.34639955005338402,-1.5975322849081306,0.62404293044839554,-2.2745461411207422,-0.71235899592479923,1.2472510822997158,-0.34219187047315752,0.7145321634206242,-0.3812834089948845,0.91949791158668726,0.10091209036498063,0.81217433133524608,-0.41253676448923937,-1.8177845910028803,0.38641352910315718,0.44270912452422534,0.31411473042770871,-0.52514018925007755,-0.94502721156886271,-1.7165090351625911,0.42332175073600575,-0.80546826985469533,-0.3175567201314497,0.41097583669644105,-1.2335818125485634,-1.1806545369848296,0.54120148516507316,0.28148902575712859,0.5024423818509185,0.25390220558291504,-0.095110680860783767,0.029698772312063696,-0.20621890031867599,-0.85333172128717871,-0.70409016585298945,-0.78475092545622172,0.67004154361577517,1.291249151458209,-1.384019037348506,0.42172606193118201,0.55041318696087016,-0.95341716655578646,0.59960853332068964,0.79668137598168909,0.0083792091878791847,0.18583560529387735,0.92384261255482247,0.17282538991631541,-0.39596274635838991,0.34884816660893697,0.6158617469412816,-0.27754482034698796,0.5135547635521891,1.2783652023918877,-0.40419961739779969,-1.1550098122661128,-0.64978326861442237,0.63897468292501203,0.7224726848544879,1.1492282461804346,-0.63608502922610921,0.92518720243712838,0.21235149575898515,1.8456630517827477,0.82854653660550537,-1.245521785252788,0.45407544244063208,0.49624983220542523,0.46638402718489153,-0.56065601417443089,0.31398697739916609,-0.17820798411323857,1.336525652310371,1.6607926823199073,0.2976980055236027,1.1612660102425734,-1.1539566966068362,-0.74544112931454254,-0.68068132038665385,-0.19595214268555175,-0.94211294444528459,0.61977346139966283,0.81324121348398781,0.95255591430108955,1.1614943187256155,-1.0382637101261039,-1.3399566865452377,-0.32347047382475497,0.8717070384830401,0.068303710603966908,0.11025827623286051,-1.0235683006287561,1.203042977379615,0.68008999810945081,0.42310752847657357,-1.1064605124250064,0.75534633746088997,0.51466418889149912,0.7940128010586065,0.85324020293468361,0.13794941259062229,-0.18582257002576189,0.055309071913966806,0.13099859633950039,0.80442662538157395,-2.2673346782611246,1.3807661032499587,1.4030028277736815,1.231909200265775,-1.043889022568365,-1.4149979869132157,0.14338394325768591,-0.21161677562179457,-1.5117824475331914,-0.23608934523117162,0.26513264314843066,-0.44627467427169903,0.18715380459876235,0.28585507963059781,1.5671643222014355,-0.27055743057840415,-0.30053948917690831,-0.67596840765717081,-0.13390446541093945,-0.7071025553534851,-1.3562220929989481,0.96401486599700215,-0.93048528100609407,-1.1766017023699915,-1.4560038097348842,-0.79701405092872779,0.16074377811879564,-1.1761550560009548,-1.438104413396764,-2.4686699046884111,0.71358042257154464,1.0323908658748944,0.3661042791844511,-0.67871421567056855,0.41037405235211771,1.2624067468946154,-0.68357642408919317,0.0082979963748639855,-0.12968850478772839,0.80607586624457939,-1.025488882012872,0.67111452332360677,0.97350687208289566,-0.89943069225778094,0.49475491234382818,0.92413020036819826,0.023881432908039821,-0.10881866157015661,-0.54590907133146849,1.3147265495441705,0.24138527810115101,-0.2563260038960794,-0.53840914421596242,0.31838027591392076,0.25315455356030769,0.31108291021048728,-0.27925232746182471,-1.4528049286773492,0.61578081729823242,1.6795160933452633,0.79243851809119326,-0.69900852905124788,-0.32930870947252422,-0.43854939979068569,0.069790208821173427,-0.14181078515149331,-1.0709913298003255,-0.70537219362420567,-1.5949850315134353,-0.081404899104208089,0.76138938077164953,-1.049337413099964,-1.6986301614953112,0.79603527583065947,0.62688985930889574,2.0582218881860532,-1.7603078847792588,0.2229034025086869,0.21773689559406154,0.80615873802068616,0.6859632746655594,0.087186210940867287,-0.12069775054189162,1.405385520606987,-1.2891481400757043,0.10444290114793188,-0.017657365120295126,0.32012372661873323,2.1233459203994745,-0.21249840975530096,0.096498936232927435,0.61456724817871033,0.58712510148284391,0.79291521093076989,0.49605134281773461,-0.46606875485694155,2.2094266954905835,-1.1301873138164762,0.46927932277925161,0.7665718668235173,0.38301317410337354,-1.3222876994203983,-0.1598679210925483,2.0338722335512718,0.45812225345587898,1.558424957931968,1.4661780567381706,0.93424058233015761,2.3786710893491634,1.0985996723117168,-3.6214465805159257,-0.39895065599324364,1.4879831225032236,-0.94199829916854849,-0.14398818140085087,-1.3572034476129378,-1.1034454670643343,-0.25810930575251378,0.61038506144828208,-0.70889214521706156,0.71606908524585311,-2.2958043604263998,-0.099525408000436313,-1.390902354892003,-1.2645130275651926,1.173099216694734,-1.7467130968299063,0.34394927205449194,2.5496622527753305,-1.1217876667808446,1.3772044288204179,1.5097322897881007,-0.59994325863845643,0.50859727135813704,-0.64627020213244091,0.17864292872907897,-1.8642751972876836,-0.8436946803384836,0.5382664670465892,-0.39563628737747492,-0.69956496951760294,0.070663002215196696,-0.19856002679616772,0.43565260050306215,-0.69780267322688538,-0.31178514886675185,-0.52055847016192069,0.53522484479061383,0.94030619836744378,0.53699177764122574,-0.022131048971408752,1.6365696505546898,0.14918270350110388,0.25998669220985576,1.397830887464695,0.0011161799075766687,0.12196737132609145,0.63966515990036077,0.16640503148485014,0.75697926310134933,0.20775309832769254,-0.17207207338316804,-0.26257779063416437,0.8753354995868895,2.0247611042627383,1.7642818719301825,-1.277075946044776,0.85081843730350504,0.30288657401448682,-1.1966465874717633,-0.57005732519990771,-0.43114966732331517,0.3140879889795104,-0.022967295287794776,-0.14045705210512685,2.016319252562556,-0.71643035776413644,0.37666879052698959,-0.33935373753749754,0.26993792908867276,-0.25551058091569656,1.1955490304632457,0.23862381245328143,-1.2850593461768154,1.3338702559015596,-0.20062906296041794,-0.46264590547521001,1.2574065333432196,-2.1257252853395072,-1.3376047227219496,1.7505315007643423,0.34013233595863918,-1.4137302262133851,0.074120468931399369,-0.806065586246411,1.3115913158459998,-0.24661015209666487,0.75932741980991669,1.877664136291328,-0.78672233216629317,1.2831583183885804,0.30607329927553839,-0.6907935533746985,0.3267459613853671,1.1199933002910227,-0.78940520235738421,1.0372288473059332,-0.55861901376959,-1.0230223384241139,0.211957762257107,1.3399525444527063,0.64134459443964953,-1.0375806233107248,-0.071426224423135287,-0.65055837663058491,-0.78285512292491233,-0.88340568184822066,2.1975612338566699,-0.37876015713827199,0.28892382961761065,-0.011485355550556353,-1.0893970548036651,-0.59930754512873541,-1.2913429494778148,0.3340363781504917,0.7212381008391392,0.45616922647224956,-2.177390457338233,-0.31837934703777898,1.3488549226731072,-1.1505348997046514,-2.1560840130016534,2.1166214187837471,0.43637765801960415,0.93710004101769873,-0.54454311356261909,-1.3872092913088272,-0.80402416290730838,0.24786106199202754,0.24454976190196173,1.8448548831609906,0.2644797743690756,-0.58354780104306414,-0.3659051263058461,1.2093429294746771,-0.24426408202135672,-0.19614836499829913,-0.62012654322625993,0.56053993127769997,0.6313324646881564,-0.59729351410385445,1.9178857065361989,-0.99829219727963336,1.1523968438829777,0.85310147953602555,-0.41713328263760591,-1.2128500820378327,-0.011884326718362211,-1.97063609420648,0.25201985561482093,-1.0327533857427482,-2.3341521420148377,0.67314865877400909,-0.35740700487645455,1.489910525791492,0.091302707866423236,1.8950188155588261,-0.63298801656338677,-0.13202062183294955,1.807999277864041,-0.99710267658256879,0.55269431761857402,1.0671313428394074,0.16761447111199695,-0.085661564863075745,-0.19335635032796261,1.2919917282203073,-0.32669204238889582,-0.054930212454595125,1.0519100497762834,-1.5740428843990799,1.5868239978180287,0.63523058147342093,-0.20371160570953792,-0.033927317099780405,0.54132159550047199,0.34053313529551732,1.0054389142606235,-0.75995285431322912,-0.81412781214987018,-1.2197712347155887,-1.5289539716249094,-0.59569380886392864,-0.59307837180567402,0.075320790571009544,-0.45362208124212755,0.62997556108086417,-0.026662190048853816,0.14256122393381002,0.72049944329685589,-0.6816155366860096,-0.90075576456174633,1.6649965311136332,1.411168943363776,0.088168317274108218,1.1987774974828875,0.90357184240297905,-0.075161406531158631,-1.0438888794184928,1.1538374941222513,0.0036897487424579645,0.44665312097986426,0.47269018359394238,0.11693010026022128,0.91300227097147757,-0.27542980297993425,0.43964482841817293,-0.081149867452462707,0.76961575124208181,-0.28135948094172886,-1.3671149816786425,0.20313450748800957,-1.3440262090696018,0.76194659301831902,2.2626967898592567,1.1713539430420281,-0.19611634451991369,1.6550719696987017,-2.1477910422689366,-0.38069674232998524,0.96581154274971648,0.11473123438713069,-0.17234064786813197,-1.2680838195773976,-0.82854810223512187,0.24424221056168097,-2.0482100527334195,-0.26671642488330155,0.91644847058022572,0.67109541696975217,0.0070945560909420743,1.0426120257029621,0.34110408053041447,0.88609300316582629,0.34789844397994091,0.42869988167447015,-1.0258734832045755,0.22422134260305823,-1.6975978824245819,1.7211637027695159,0.31270329128493535,-0.6119318754515608,-1.908530926405374,0.67816615904154087,0.88632214673564313,1.6437678932267199,-0.2511105365696838,-1.1010946351805908,-0.84234120817739011,-0.91199034005033353,0.81620656967932126,-0.2502085080314525,0.86720248991761029,-1.6640503512982474,-0.55081322003838784,-1.5751188666278861,-1.579784110453945,1.5806357882707824,0.99743718865767861,-0.94863142672110878,-0.96225487596681758,-1.7909214762186842,0.53084454685333693,-0.22516390678748563,0.54001601588863268,-0.062138268946120463,-0.23681637103048689,0.43219181143139551,0.82738666848887243,0.373100752536216,0.90740693157687746,-1.7439092593883809,0.54187126860662682,-1.0042489960562178,0.045282240249946953,-2.2114025030383786,-1.3088662395541621,0.042110910395298982,0.75045116052308281,0.81846770955357162,0.65854734521896141,-0.8695964771735285,-1.1204207260945793,1.4065318849905193,-1.3736938285136719,0.12047747828268526,-0.55394838509605604,0.092740856856004666,-0.74714760639835298,1.2561897196263205,1.1555779920920177,1.2532944003886251,-0.019857236543576646,0.078802448240526457,0.14924005212861635,-0.6031244653827228,1.5974132410827404,0.42526614579503996,1.1179567950604059,1.7768430141163134,0.011661012302847986,0.063237237521454062,0.045117212893091917,0.70810896657740829,-0.73430706195396989,0.80450431721323579,0.40023670326031269,0.89464454585773101,0.985167992051032,-1.3674008585061705,0.72458602747205669,-0.62912244761462088,-0.81057381964060304,0.29368539707008151,-1.0216156905730891,-0.28957966204102437,0.88303168169746182,0.033058354558393774,0.90639742173713345,1.2339683936326729,0.70315153674227482,-0.68638081473982748,-0.73026761261333684,-1.686606252014069,1.509822015495387,-0.050415151486808897,1.1357669170185027,0.70490992077867476,-0.10738215768709004,0.52796897039625101,-1.0589502038256786,-0.61090723844575845,-0.27137640007909425,-0.009591132532121625,-0.4990300122532908,-2.2141513310672232,1.6956834965833716,0.85506139794573011,0.23676393644766677,0.58723526833862583,0.4935546628306316,0.46706224282239395,-0.81359104297606766,-0.2582858502300554,-0.23314581546159774,0.48777191832823846,1.0262340683115774,1.2874765982691128,-0.68993065033330503,0.53744484895717515,-0.27883618495667833,-0.74059841166153018,0.38261949692026065,1.181994898342493,-0.54212319545996901,-1.2248884961321298,2.6727366909641743,-0.014329187329157247,-0.30730240139485065
0.17651876794095817,0.67658103958160576,-0.43712600661669149,0.50961056565152063,0.84916516860550828,0.31734415733350402,-0.15502864694792864,-0.50164142475185325,0.70409411944722777,-0.84402235319828878,-0.95826197863082241,-0.52658778786281002,0.63180973070551905,-0.81043463121245896,-2.4160208283477802,-0.46999705868583486,-1.8302761249522463,-0.5011335831231376,0.7171624676038334,-1.1811349925299333,-2.1602572158517415,-0.86803242728346841,-1.4967902182400157,1.6266419994771706,1.8499638183034701,-0.94601110675205291,-1.6793608294709832,2.0852965961375611,-0.89591987881039226,-2.0309570516724622,0.16960672044540692,-0.97403371325056387,0.33776599538665197,-1.5814948493031087,-1.2989858175707591,-1.2907595146970139,2.4801917659374957,-0.76831304801298761,-0.1766108798500563,-0.96924553288439697,-0.62559602652302304,-1.5401991541069799,0.15541983239376911,-0.41716197766970309,0.17044080231371067,-0.0077890611021233808,-0.20846326682710803,-0.34172925370896828,1.0453828875370854,0.22528418546882548,-0.50181868267735619,0.76293312496348653,0.74641458104846459,1.5684128548324734,-0.37640871028310086,-0.75474395082830692,2.3644875635075011,1.7793631900538038,-0.13284834920998098,0.11497063020376889,1.252596533805074,-0.30581920507904742,-0.22358839080923995,-0.27347894847034954,1.1752583563456889,0.30949207432968462,0.71876725451081036,0.50157843019069981,-0.99084604779371643,0.89377240330519159,0.40091735957613328,-0.18258602047574782,2.5491672444564268,-0.55181241586356988,0.34944810633984008,0.096269610025039656,-0.24360247073103797,-0.41400705400549948,0.030293172361995527,0.72734856923467439,-0.78014628747709969,0.71993152641000135,-0.41914163346058497,-0.92798180551748577,1.3260843305194492,0.59093857880976841,0.92326653088928745,0.66931166039668477,2.0146600059691777,-0.59363476817129468,-0.57791732588875211,0.64401692591486925,-0.37876367090079072,-0.27488557094696581,1.1068398246524549,1.7589716593216829,1.4105205935680698,-0.94791786185301952,1.5152751699059042,-1.0692836912100727,1.222111992266381,0.72143860471551258,-1.3042540549041439,0.85421667123649958,1.2754518014606866,-1.9164746135876187,0.56365184462509244,2.7472429211679783,0.75519811642549428,1.2799884602555376,0.022728986641869803,-1.1009284773590753,-0.17861165156278885,-1.5469745892674325,0.55486310104431658,-1.626683460769061,-0.31006061138224228,-0.74359589319028685,1.5098527019788599,0.56397592948051278,-0.3572975475744436,-1.7565866104112997,0.5088833550420252,-1.120099280735553,-0.17454765696192229,-0.19435096927034745,2.2532382618250995,0.93682594876731562,-0.72298135856683676,-0.78151406615522878,1.9748212002977803,0.50942345848472392,0.90423400719264768,-0.28066217283633266,0.59655954931071409,1.0368321050301321,0.28442544252946556,1.0679891353563573,-0.32066517161374936,-0.64703828460925594,0.85544055203071434,-0.34219316744187689,-0.1238010662901942,0.6747648099659036,1.3936590964294218,-0.076036227880831322,-0.95892643828525659,-0.61267553200621705,0.63965263927190574,-0.07042777326978196,-0.84985156108665527,-0.022911532652730729,-0.12754063688100298,0.5984197702011238,0.16258044565010524,-0.6538131522174121,0.97263229788258687,-0.16827745240341041,0.71265509090016321,0.5115664892911882,-1.0395603803500626,-0.66088291789193665,1.1380179117830065,-0.76921400330847989,0.10753785543231258,-0.5766766741658369,-0.30802553497756752,0.12857302119852351,0.19633621466495399,0.1039242771126478,-0.11620788747779412,-0.022446282095023896,-0.65779763171365624,0.31613452901369143,-1.5698280986510353,0.74202731839048741,0.28544675613086473,-0.48655867348315762,0.18724011620400807,0.12176838228687113,-0.73388359807550152,-0.1476082873702092,-0.90440845964151773,-0.073138957257842765,-1.2246457574717697,-0.55374518324569122,-1.5577709507623088,0.84216045462014211,0.082209893781367518,1.841230893132868,1.160590102452189,-1.1017843589628131,1.76293511827217,1.1114202379167399,0.6043103278635954,-0.089504202752451162,-2.0898506787262749,0.19446685344598708,1.4687636963716308,-1.1231963709130386,-0.39646602035031514,-1.0453072448139229,1.8717109318358975,-2.5233074254400401,-0.0097635163342746217,0.15996704922246127,0.4527770603243742,-0.35893728665110419,0.8368675528950793,-0.16844764812020718,-2.7929907416344495,1.3011460775406674,-0.66796194330276748,1.4839606248251933,-0.8865923153472991,1.0681491411942303,0.18530196663309953,1.5847073235301854,-1.4668540754200612,0.82262165664365439,0.44910849235332628,0.47904473151977028,0.12950928247147406,1.1324393643250941,1.0199978671565604,-1.3614757925897627,0.3927352694461485,0.50234960002426288,0.09559396046864288,-1.0456531001677731,1.0840161783967792,-0.27218169596502084,-0.020488615879285903,0.88764180380420665,1.2426832745704959,-0.092388500580665028,-1.9512902394483747,-0.32594580605868251,0.10997710655723265,0.67999739848780361,-0.31827057499363104,1.791252661097692,1.713444027153763,1.9368512172808061,0.68713442393214252,0.69142376033147568,0.11218896308856365,-1.9419762946815255,-0.59990824539916643,-0.99208141746069989,1.8122206738342905,-0.11948649199521939,1.5821768239028626,-0.54315153530097782,-1.1732358464891581,1.3567340904787579,0.75211429945417541,1.8376279778471625,-0.62011454697368429,-0.089072881978330312,-0.37542757653122394,0.41608024380114605,-0.10042511980822035,0.27494153386215592,0.86543015380622557,-1.8165317454527992,-0.81227270192257228,1.2054191158260283,-0.71892139055812454,-0.47178936281389289,-1.030204153972579,-0.22471365842483693,-1.1152667066939719,1.2565101593851924,-0.64848532302249373,-1.0013434644172818,0.19308612018462057,0.73720013099833892,0.22715344794251949,0.84227987222565681,0.27942510856468661,-0.50544736557914227,0.13895448686460563,-0.21772993575154809,1.6087330757258349,1.938781469765896,0.17345307166417059,0.42179483367911863,-1.3719059929197115,0.51940633169276229,1.3516734784267601,-1.6876737035786775,0.53257868595509028,0.95242500160792021,0.095795613866854326,-0.55172917604310878,0.13326140603592276,0.14140704169979645,-0.45646570618950438,-1.7962638805903504,-0.29696786669080938,-1.142991264933152,1.8754547520901843,0.26644616797749587,1.0102727073169298,0.52812339265097874,1.5975502009732823,0.084391962938953957,-0.42427375776303866,0.83618913586267374,0.75132547415113538,1.7724905455307194,0.057336583675651871,-0.66537022421675029,-1.0963265440921606,-0.15308122084538067,0.54834284906719832,-1.8582331930442979,-0.59700813128935881,0.21981470630859234,0.26786869134055274,0.4701658130725061,-1.7137615657248837,0.19086658805022916,-0.30027828766227793,-0.58588654490712777,1.6975826017285098,0.063949191051822132,0.11962363734875756,1.1347662720609497,1.8305467397257265,-0.18327674163783253,0.17984413818110367,-0.25353069083655932,0.0082272871903736524,0.37289508421353046,0.68402175921082076,-0.71246524610363182,-0.91902881563508709,-1.0091761188735529,0.86613234715044174,-0.12778809601347069,-0.92112138918655784,0.21823101585625998,1.1002402676446275,2.085360080501192,1.0059110615636087,0.59545625480833586,-0.13121812548779888,-1.156121228438036,-1.8782388957883898,0.45784814246411892,0.38692074439642204,0.42285393346977423,2.079593843292872,-0.091179167677445702,0.39799209993716561,0.44859545223154884,-0.83460547711838007,-0.87889788907719935,0.22286618625852098,0.74240169955755897,-0.69682970944741418,-0.29107170917746933,0.067608193719770227,-4.0975168182530162,-0.221465150142688,0.1773075574016745,1.6294521579697552,0.20352867190382654,-0.94659375587092887,0.1829906677905439,0.47738284755398552,0.24552210433379798,0.52549972183541327,-0.95144891474389026,-0.51538412909063647,0.7930515993436269,1.1253065702509035,0.73005605743366453,-0.70895390841402306,1.6420484949606033,0.63280389854056529,1.5090760018036771,-1.0564662054189418,0.028796658757026767,1.1728369426919254,-2.7393566457814735,1.0982204952638979,1.3306692850378854,0.68064699971870835,-1.1464703379255086,-0.73298279417070111,-0.27879925102150777,0.81640802746248775,-0.75665557214965229,0.35071452789879876,0.092804244484411352,0.71275322440593603,-1.0958078450225865,-0.91911654327272674,-0.73024997802792435,1.1880540740069454,-0.49599402210491988,-1.0059433831840516,-0.5628530521741234,0.34846480939956437,0.63900199575172989,0.9860503264242092,1.6011604911372324,-0.11894096838915501,1.9416124691444301,-0.94896183961149494,-1.0609333923174167,1.1352745760526213,-0.3911191235005706,0.56577655446115149,0.50869650237295772,-0.53332200802526875,-0.25852422401125519,1.8764151391890234,0.48022731149242942,-0.69980567704354968,-0.22223685208210867,-0.4292710337198265,-2.508053433101014,0.31387989703957653,0.633635435293326,0.29573127379939279,-0.56721064231041041,-1.3171026962324379,-0.35937440135820697,0.90793856781431403,-0.0063464772558294025,-0.29215904595821834,0.93148529525642898,-0.50138432491269735,-0.2664542655880901,0.070468635212114356,-0.81227958276967371,-0.022687247958429302,1.1056872513549036,-0.69773556580281659,-0.053337982604127171,-0.28458971464418875,0.83507287157513777,0.94810096698613322,-0.040022367903137679,-0.86982255380950291,-0.063964314475190215,0.46557439642213849,0.57149387900580118,0.66006013252350459,-0.46012679032866405,0.37220939651454937,2.0192953905261,1.264975318642535,-0.48813405799119808,-1.0651209717388694,-0.0030298052756900524,1.1239304698409212,0.05738654586876886,-0.65274165555791519,-2.1228084827935936,-1.8092817393147305,-0.55564596478297734,0.39180314985933601,-1.2694922933655262,-0.68615446891145848,0.16479512854236225,0.66545659063502027,0.68844342744448728,0.91942541660776822,-0.58603887318552128,0.36431545417632305,-0.19028955400756689,1.5946305236754046,0.10252635454165485,-0.50393650302230297,0.6062995174772895,1.5372228262799748,1.3044069888405465,1.1703996318079588,-0.96386558272628198,1.2075156813996895,0.73772651487667695,-0.15846563516467344,0.72011922454782984,0.010883169625742803,-0.12865554852830138,0.57490868304212817,0.32364233074367749,1.1001472465145157,-0.15312467378997605,1.4701074557366698,-0.61553672627060596,1.1729947874823412,0.37279313230095834,-0.014201509927462013,1.9908850921413639,0.60907186441517158,-2.2871272332593371,-0.52018069921017085,1.0938897598824213,-0.70877127116509997,0.85142341307742986,-0.36084813926770398,0.14118972271483607,1.1082912148784814,-0.38303651896452606,-1.7490436342863052,0.3319330164262746,-0.44464558732785681,-0.81118724459547731,-0.022120705675588569,-1.6565718592412715,0.58227807748500193,0.35818118769902918,0.40526730175408404,0.18150498982669031,-0.92351344984518735,1.2374556803862637,2.5958114676286863,0.16719822260797695,0.079793673830047443,1.6143154712352523,-0.48158179103345583,-1.050986322459986,-0.17998435067252638,-1.6577695762319649,0.59176940796446031,0.67071883881910954,0.83127076385391485,0.80456736366936554,-0.76640096534578295,1.8755154894703483,-1.4013242553818568,2.689294247765361,1.7719020994090413,0.90066540029361675,1.0076529265132381,1.2267333785124863,-0.38623977970551782,-0.44095578245593942,-1.3495342081951716,-0.27993151541029149,-0.18073122149293197,0.77395769325202468,-0.048226388897247868,-0.69383197433531263,-0.95296347229806311,-0.46663812200715771,0.54436475631752435,-0.01762601016779556,-0.27523813682723264,-0.71834818128216393,-0.55693695049356018,0.69447756887318079,-1.6851958913814584,-0.59855427096676028,-1.6953404496873508,-0.50067801306852655,0.056852242333121812,-0.82922831907491512,-0.094076605313974937,-1.0687480636959585,-1.2322360575910822,0.46662731422059428,1.7289109406771248,1.5909647317308968,-0.40365630710388006,-0.17235947808533619,0.49733673601061845,0.6292191536532159,1.2822779793174828,-1.094740129008275,0.083874344282558674,1.7812009817225767,-0.87848441907754504,-0.63954812373948944,-1.4525196348450893,-1.1618319125095828,0.22559757078704026,0.592107108694788,-0.93223580759265834,-0.15158584830267613,0.79254958223071503,1.7921587447231266,-0.97542806725954556,0.20643049988890477,0.80456674532184336,1.4658913156042708,1.9719917690190973,0.43343344653783539,-0.68794233733059384,-1.5149623383703381,0.079500880065758214,1.9645574026731603,0.45128295861882278,0.50799827375403583,0.76609934304029881,0.43115447330008799,-1.3066860696821072,1.1202973149453859,-1.7223074727890078,-0.52840425512746814,0.27461275065949492,-0.39827852404645037,0.16018657886251225,-0.11324697816344065,-0.3084023931507559,2.189348239201423,-0.14503899223038599,-2.6549516108598383,-0.796020607963,1.1107237791252795,0.82600473291993104,-0.77224616349982322,1.7927751716588252,0.82204244725995212,-0.24345921260544978,-0.50610984672429848,-0.32334865557137749,-2.3796832906816201,0.83999767565848749,-1.0642174015512105,-0.31219574594388455,2.0362126564270273,2.0159998216266399,1.5337685727759021,0.41484285251367037,1.3460372676449945,0.36738862188924176,0.59942530756443446,-0.99746555746124677,-1.4568423933434722,-0.41357906420759205,1.5127208975071511,0.026310468730462919,0.47026310313079084,0.76898823185873111,1.1332528353960682,-0.66819240426286297,-1.2991318407574153,-0.045684812294475331,1.3588579294475667,-0.018654413761080655,-0.18621247744196281,-1.5188509903465051,-1.1219426171638556,1.5216171303125487,-0.077591086254714434,-0.052800415938717225,-1.0750838410299621,-0.1488999583719583,0.35814193654139426,-2.3226060253459111,0.40238104089503479,-1.1098148087063968,1.465320093429465,-0.17969198087079,-0.30849441367577207,1.0283482288147945,1.1177711035774773,0.06028329745996288,-1.0128118314073289,-0.56605180137263267,-0.91152000047517945,0.64679779346885591,-0.25036052305875622,-0.58365410593496203,0.0041034791778589057,-0.59042107400409438,1.1285872146682741,0.78883808207290507,-0.55348181585291012,0.89931527821596391,-0.93988674701136787,-1.0842642497715567,1.5331514125101249,0.83213908149147275,0.3022832968845367,0.79929385180064993,0.075112602837552805,0.30866466734438286,-0.16947151625159856,0.82642060460213396,0.390787738805148,0.088046852293442252,-0.68173186475788994,-0.34091529105410495,1.1416267672797602,0.08135107196167593,0.14337612742823738,1.0202300856577535,-0.99239312094444443,0.60524137494119568,-0.57487178013770401,0.88679823196305474,0.066073471822793176,-1.0240825944308616,-1.4621813479388093,1.4522529892226124,1.0492505500396532,-0.45532135635560089,0.36649949449764063,-0.11920948652870345,-0.44111163216036148,1.6868809043299384,-0.48122990690762291,0.032092160313017329,-2.5388807096716079,-0.33321445628100405,-2.1821733481393117,-1.0622590885878285,-0.83877381647454419,-1.0547111523012833,0.10729297448593723,-0.098633320899380469,-0.51859505896458857,-0.4438595309236209,-0.053049033047262856,-0.32152873897606182,0.57689438660100545,0.52917015155705083,-0.72535429520328087,-0.13802488635125745,-0.52800860258518112,0.055929229724784937,1.2216039032558432,1.8524061295243981,0.18300062305505974,0.91703119885832418,-0.24829457610564606,0.11161421598041807,0.51088410069497359,-1.0463854232899892,1.1227995609051351,0.52095343319354526,1.5785308037033061,1.479914698814554,-0.40852697616006323,1.2309684057255299,0.06739044151675519,0.45058914362966906,0.13170536792169088,-0.2328279251174325,1.5190950789555731,-0.46739638854515592,1.0833093420249849,-0.002466089521326631,-0.5074413414022203,0.53116346033933204,1.2493398852612763,-0.53309570672675743,0.042893533820934596,-0.64763012657866703,0.34627408635299201,-0.2418858737451513,-0.99935268777333008,-1.0928076646025624,1.0382376316731399,0.52866801940094033,1.7313230983310708,1.3266262478153075,0.2895118959795695,1.0597037911788323,-0.2909033465984765,1.1396077873677066,-0.9260792106121255,0.49724169086874065,-0.904257339526083,0.82172089946747884,1.4823068785111138,-0.41304186641650859,-0.11952811663844137,-0.9295880303438,0.047138025077890791,-0.46363875004985461,-0.025306496680620592,-0.51640913521677267,2.7097163844440364,-0.062398104235864532,0.11453758923558199,2.5731194609138934,0.34254849508842483,-1.1292691614652006,-0.32294297377190723,0.22417663641456564,1.2201551065269003,1.375120455630739,0.34367778276382266,-1.3506626676819027,0.75282176438732196,1.1576155059488404,1.9611854896444492,-0.8838271113079611,0.085896317090312022,1.7136262528199429,0.63698930378548069,0.77212457145058599,-0.65889134395960292,-0.67710953403256979,0.29030645640895564,0.1604987172538373,0.5878226383668006,-0.9881065130224751,0.93582580258157155,0.58902474412469674,0.48762045137140381,1.4432941382575848,1.1010980316320815,1.0944470847141994,1.2805768485615814,0.68919141274454987,-0.89753854932784305,-0.72823124838134723,-0.19501857102335932,1.656575801873277,0.3152508656968051,-0.28118062201826161,-0.015820563957011986,0.86528651857128935,0.48466110733804141,0.28366487109482669,-0.34634381563656574,-1.4372795564881971,-3.0889415960764026,-0.10401481406078612,0.7750022857529808,0.7117532902709186,-0.35184909647385998,-0.39360942747253902,-0.95561293815524484,1.3007635250005243,-0.93442448405926348,-0.99277556780726806,0.065958708329431501,-0.28264115080260699,-1.5789977703923164,-1.2984838672234722,1.4512207780816455,0.071658951266977744,0.83518114415762468,-1.6910250156340685,-0.06868814397727413,-1.4785231505095167,0.43051630327729357,0.34041989550895385,0.22483053022998176,0.90939610357776879,-0.42870992495725202,-0.93359603309140937,0.13927872566153721,1.0215968574778966,-0.71981058524173958,0.24287997734836345,0.69637166107953341,-1.9437025681845117,0.97148379818256481,1.0943299501471018,-0.78837461874932202,-0.38048843050298958,-0.68684070466183655,1.5991411983601793,1.7580396230886073,0.0054571475936777041,-0.44397351485528419,0.1992827932476828,1.0037624889020671,-0.89467656914017546,0.28054216021372191,2.9939366335107591,-0.56930828043559245,-0.43891284426795585,0.53807633153638046,1.090177059209132,1.250573832915719,0.86660448672241319,-0.17844437317713291,1.5098392567103831,1.3587247282152151,-0.20146672090779064,0.009338514887812531,-0.078868752006450063,0.97681993023356939,0.063489152040576619,0.83619218917562432,0.019996569841637842,-0.47013023781822849,0.19321904281683863,-1.4375823281969951,-0.36895825722708947,0.44764723299093234,-0.8865968422074666,1.7737540801493554,-0.83404899642492059,0.31381806571988485,1.3323695214070772,0.42256561061328535,0.39362400048357765,-0.66840765341654762,-1.7556211949178238,1.3672936573623935,0.27853895889788405,1.4984297298262186,-0.73995584601643938,0.62299499152114923,2.7392198283605995,-0.35839643174968505,0.49202856462586014,0.55939136046922489,-0.56688933582919876,-0.12501254392647007,1.8208651950880743,-0.51666294172842653,-0.69493281209390589,0.68932484479664624,0.1713769854126056,-0.46908120955293447,0.62745919625360214,0.082883907238154197,0.035872929007667073,-1.3888034985976014,0.20184693894942954,0.014479713273726911,0.24573651444012334,-0.3151085122246815,0.20551009763247458,-2.3348662196920031,-0.31401690795304849,-0.83795666953023151,0.43600242735039452,-0.9781454387090871,-0.38746010212832871,-0.76796760518617613,0.26929772435821586,0.60794559810757842,-0.38488860796136415,-1.0900361093993007,0.42854582519629536,0.60917256236171058,-0.53247031214183549,-0.26324256907939997,-1.8129258253070248,1.7891176231890933,0.69075622989909224,-0.29572753718807981,-0.72367061831569557,-1.0379754102393826,-0.044203535880184976,-0.30227508806174075,0.57739836484946117,-0.61399199148300776,-0.087921540260078132,0.16185730455907102,-0.94282379352118717,0.3322075430108718,0.75888892275909225,1.5642911947294684,-0.12954524259697958,-1.8872641224392428,-1.816147220854972,-1.5211046456063269,2.8288400896969152,-0.91119225577455687,-0.41619180646779658,-0.58144434399149758,0.44671109605746234,0.5937149604150852,-2.3614981769501662,0.69905455678536177,0.2343340882146403,0.66461376193456045,-0.3634483533845636,0.41579345489267794,0.17808795248816486,-0.69439872737316222,-1.4854078131176986,0.18365302280626411,0.43644471661084078,-1.6888971118034812,0.71670691145188814,-1.2412478610105435,-0.22828576547938081,1.5372424406513394,-0.57507863986395424,0.1973274095277342,-0.46328237108113196,0.73543800563582429,0.85420454784042699,0.93268745730183555,-0.16206631586509318,2.0244263000179092,0.58649321081560268,-0.55301482254154655,-0.9921308821824788,0.14392754710178379,0.86478833466527194,-0.99234988403118507,0.79312138057677717,1.0965627536470655,-1.4609408956261918,-2.0732521339535133,-0.60998979034158285,-0.10075622538051966,-1.1500837382667934,-2.167240455979528,0.21716841719059973,1.5592693080539688,0.28361746907399576,-0.95276805788529106,1.3640706994253997,-1.1589606049853156,-0.6159994659262723,1.8076384571629553,-0.93479858205820088,-1.7244978467245036,1.3845763397441688,-0.97674079804856928,0.52250191723617923,-0.52878816979174059,0.91924849318990076,1.1382642270822512,0.71667564620571711,0.25257668463193816,-1.3887068479061102,0.92794510745883463,1.3524684663381121,1.0489851360752831,0.39826398600622803,0.29907208949560987,-0.61545188293824737,1.8821450343014907,-0.955572657272029,-0.33089023235132081,1.0524883683941046,1.7810658961043508,1.3480238183600499,0.2682572003354991,-0.57356103950475401,0.33030775755937153,-1.0373394221125201,-0.36391017567415435,0.19037415813666392,-1.0470877529680958,0.56983688576095626,-0.0010600037630375792,0.13422929188556215,0.37264883945537319,0.40223637556404274,0.96191414993816404,-0.79410589076594329,0.47534886205253923,0.075597177374130548,0.25542127979613793,1.0241246196387277,1.3039488358519149,0.18947955424058827,-0.84404208759813504,1.9603716020812287,-0.34768572279439641,0.35135713264606389,0.57412480490761009,-0.6240286229169002,-0.023304242728330652,0.53982443158326165,-0.67694461190541333,-0.63929225756433161,1.2497954364799659,0.97785806140058695,1.275753410836741,-1.8183409568079716,0.38040223825100067,0.26126580428962715,-0.69957799678184129,0.10287753207713753,-1.2050276588506121,-0.41846936464442241,-0.0594669475892948,-1.1188584746852135,0.20890005834396727,0.12931034917077502,-1.7106059706350818,-1.3387214082645666,0.3635708596938157,-0.057291252817686329,-0.12542064789841137,1.3590429699979747,2.0677634533671116,-0.66322571861399171,-0.89062724625854717,1.5526749940876852,1.8979703755468957,0.46850794498929244,0.43505525161903641,-0.32240322331089322,1.3984393127351327,1.4458167479751949,-0.38980902513240273,1.9203466354012781,0.41928260415578894,0.10110789252274825,0.34779452296722635,-0.70066303128118534,-0.11403775158992432,-0.40561348118407847,-0.031428622887982871,-1.8723869439266532,-0.33803400085835661,0.44587415169036243,1.0597011057357539,-0.99046640637459449,1.2533768833413252,0.35686188451949935,0.058514741680587026,1.7720424309459797,0.69987890433004163,-1.734351441781804,-1.6001350096153844,0.60818517400436356,0.11555969563919435,0.68419030754886778,-0.14888367941725061,-0.077969068590057727,1.6102269079545455,-0.41581321244812403,-0.21899945563073051,-0.018258520712253808,-0.21666868177094403,0.80079494984654931,-0.39505366870686515,0.98744777087051727,0.73121956849254399,0.94602586209179929,0.35088125925225722,2.0101929593479428,0.59777042698046368,0.51917833773615585,-0.79091363850719398,-0.9707941810885512,-0.45615737944408502,2.072536795994349,0.044242776520846017,0.38672164551142818,1.2573623180468165,0.51544484476579655,0.16774248194439917,-0.53045576916817527,-0.68495113486813342,-1.7896175251226971,1.1907223283534403,0.2080338649623569,-0.63723522879221006,-0.49343662728259347,-0.031836296461239755,0.60081706706606108,-0.36372963964123228,1.752192119733337,0.48995541196717818,-0.46883540485556613,0.63990120027560016,-0.73517659001311708,0.63432095107011388,-0.080639126438352207,0.35345294775740355,0.64727427294865614,-0.30630624204798734,1.1098160671320447,0.96795682922638104,-1.6014243353568696,-0.41015330299229485,1.4187824103288198,-1.1651807972892676,-0.35327548027871014,0.17412269177815692,0.19070280822739785,0.12581243999706068,0.19586902410308252,0.60704749426921956,0.85873783963328365,0.14312453338040748,2.689946088405978,-1.834503054548452,1.2531555738890245,1.1804465082654307,-0.98888167351421108,-0.35051435964878114,1.832689556108311,-0.32206681636095125,-0.94692638759408054,0.092193054948134096,0.29622703627593311,0.82145603041332693,1.2835999998374359,-1.0952485327172798,1.1008833636471189,0.69384536307317013,-1.2953442652778695,-0.24425352545223408,-0.11779458556600596,-1.3191368994380273,0.32373968512753654,0.79688568060778031,0.69932507515180442,-1.5702477700915303,-1.5298665357841983,-0.4503375120783617,-1.1989519184595534,-0.43429100321046876,-1.1392654559539075,-1.122137106950819,0.63249771198175753,0.17748074624256879,1.2208765171881442,0.47079430166199659,-0.5392180609701358,-0.50113620592148078,-0.46989231308831281,0.90100708119339823,0.46488683208080167,-1.4191694744285241,0.65864840806791747,-0.48652279839028578,-0.9506427455805645,0.12103651009987555,1.9560107376630711,0.096851396237865373,-0.143233860495631,-0.58433123558861433,0.66886611749568226,0.9210613141036359,-0.89142641071371853,-1.2451058080339783,2.0880977342542155,2.044670419101946,0.035361722500382234,-0.33580599798847577,0.15649816164217559,0.67383339592713376,-0.18450248789691157,0.13007765010372413,-0.88425783857075702,-1.1850231172053076,-0.24802407911330143,1.1222055078469682,-1.6836728785946693,0.74920658518078387,-0.22808806628701356,0.29432506365475147,1.7914533122685823,1.0281574593795577,-0.83593722573245444,-0.33114027917250438,-0.29164100047228392,-1.3612182239916399,-0.16084319044449763,-0.55819967898727185,-0.37668767093462113,0.045151160449087895,0.6340220325092919,-0.08730124869126997,-0.60312662806888639,-0.0048067864210541503,0.54324744194547459,-0.95266398520399087,-1.5081601448944786,-1.4843038996719167,-0.31933773946525806,1.6291313386821087,-1.2890864183164858,0.88317403447838527,-0.60557682208194819,-0.29158557163083865,-1.1414478378297779,-1.1178130046914914,-1.9073246213472945,-0.32109443685731387,-1.3917797798751319,0.51260557664561202,-0.19934103671396322,-0.055654933358987226,-0.51625742039801026,-0.16657006295889965,-0.89988430560763888,0.19997617876001147,0.37303149477500269,1.0086864610269992,0.78040086116727769,-1.4458091149539753,0.30891087464963768,-0.081004985839032539,0.79696470408583764,0.27949094237843902,0.99364185863937471,0.19159902190870526,-0.77233926628944072,-1.1576499467349795,0.07016238268454919,0.22783789201816065,-1.060307504112316,-0.25676419808979989,-0.38629365602832094,0.4398104539492102,0.52567742543412277,-0.99314371197497064,0.43062144068767716,0.73585179451579452,0.78615242396247487,1.2502326141784179,0.57341667092476778,2.8265521260847781,0.14384626062662584,-0.56368472907548617,0.19038659863261118,0.93671781768547979,0.90984971081261101,-0.29022908019160204,1.3579392420195342,0.20102106903152972,-2.3107749330724361,-2.0323635610378679,-0.17201336010467605,-0.042064401505799758,1.2251370167507347,0.71256576883095291,-1.0727526371221119,0.79987464206026038,0.59181030780748678,0.027267825477056556,0.86720511170507997,-1.7480446752119152,0.87106484001825524,0.56712481207227528,0.48366924541708378,0.60312326596560228,0.40665933741100557,0.259561557779525,-0.66429971238545638,1.5682933432692707,0.67242892590646497,-1.1312225458872216,0.079265255569998042,-0.41531135366219157,-1.4709603211562541,0.73057375554933157,0.4152542528240743,-0.043663884080502258,0.45055277174903052,1.4383115155327957,-0.37504769609545047,1.3096705512864806,-1.416607433951226,-1.2410545902621799,-0.48579848327226571,0.069206453366997947,0.12399786134116658,0.073126322964674376,0.92932591249472685,-1.4467317200218195,0.46400956496950008,0.5787043329693633,-0.22774705322582151,-1.2384894699133089,0.77362934284340568,0.57398919613953625,0.19934209249742812,0.73909645472477503,1.3743011985880702,0.033748971128940583,1.2699954937373712,-1.1362993835077377,0.023921619999853191,0.80188074574829549,-0.66719569896878506,-0.79387681078244055,-0.43983131052582025,-2.2655567891759421,0.31899081124909584,-0.19013236167078235,-0.96561231311965667,1.2811006111007917,-0.23819659632635423,1.5209587712807653,-0.016415137817308623,1.2597608226723098,0.50468292091076083,-1.1315426847521364,0.11763955280599715,0.77046317446688917,-1.2416142882128032,-0.26580446318570761,-0.00072234854018385711,-0.41660909511545641,-0.26033784177682456,0.19942334651427387,-0.44138544481235809,-0.8757201154615929,-0.11785002951614043,-1.0870746918259369,0.065428002992215031,0.343993231756763,1.5299049920126473,0.33114254395611387,-0.92774002279082168,-0.88326644236737584,0.67757034379025816,-1.2299350248961805,0.11840710480548665,-0.27520881209972814,-1.6084773668340389,0.56150629375092986,-0.045200788962515497,0.66626696712782207,0.57687644815781636,1.7143321425177569,0.31359964406168017,0.14970306546215445,0.57021912086784543,-0.96012518382831336,0.69628467360846236,0.15436587984346173,0.9257335310291569,-0.17698776065798111,-0.36916930258370512,-1.6305442678247986,-0.7028293009459794,-0.58378215611150086,-1.0643663302356454,0.066449372682548677,0.14765160933073965,0.49661391206700889,-0.49687599974049546,1.6046614226490366,-0.62887760926585889,1.3756320524885355,0.67132212746586228,1.792971529863604,-0.6795399790760317,-0.37172657258262026,0.51963459482742091,1.0691201004093775,0.15901854261528595,-0.57273639300674106,0.32931583797136554,0.93535822177060302,-0.95071736906766879,0.034096676825840264,-1.1905704299350106,-1.723040822795644,-0.65721988459299219,-1.7201698034265056,0.51701514244482283,-0.4975808339164226,1.193605799232091,-0.98881614437317933,0.82408328578615941,0.99593782239172446,0.75501560118525624,1.1769864041474274,0.42615296738259756,-0.36772331490727228,0.073658689901507216,0.41548311298915142,-0.1438538347103531,-0.66400156413509515,-0.4615748180120765,-0.85406934131216994,0.75896695492671251,-0.46351015374740206,0.37088790624960033,-0.40126941237177832,1.0016887235061525,0.23373015528327246,-0.91589631949094674,0.23404985502710657,0.30060566244427567,-0.051194090348740035,0.1606595760753079,-0.23539246017092436,-0.29193626495856129,0.72904646857924937,1.360331354988082,-1.1301051650610188,-0.69271104542213702,-1.2512251473979308,0.11463386673990243,-0.8467161938641794,1.0484208938934088,0.67291425149531914,-0.12203328192960614,-0.24156553573523379,-0.65251395196574158,0.1984328641349207,-1.0133918937933883,0.30573047724851765,0.047420027001004526,0.55219145714780038,-1.0935870922042608,0.94336694520178799,0.86412994244642904,1.7734312732870543,-0.11420940882211458,0.98107235079919808,1.3261229153540033,-0.9893410251401602,1.9899832625037526,-1.7739872347569794,-0.30512912414344179,0.78158995668546039,0.62869230643597418,0.37413296320375555,-1.1281506423557748,1.6090756110012296,-1.6856282710510493,0.78017286960962073,0.30369498440416454,-0.94230949820166554,-0.62059005285650704,0.87521784299701999,-0.84915274408877595,-0.84845296818580962,-0.118846638499376,0.56230265771316978,0.62477606202083436,0.22576674971863292,-0.05905010710059852,-0.48778293000978318,0.87486140227462461,0.55350940619789157,-1.2203371616537977,0.83887154767985039,2.1305822651161406,0.31437734452445876,-0.38024225160061514,-0.1338536081438137,-0.54102158953924284,-2.3564328239749357,-2.2487908168513302,-0.52886557899782405,1.3145002960766141,-1.5968893275063938,1.3522809368548256,1.0673922631520034,0.11566689310709415,2.727478814393939,-0.47120046442049451,0.35373172974081718,0.68675118885564335,0.69881397190504546,0.035361017352774207,-0.23234024404683051,0.16974467600984441,1.3068651252409906,0.32632063599091932,-1.4150747937380683,-0.32662951041690597,-0.55195761969625212,1.0386656037132922,-3.2606894864352265,-1.98238333567892,-1.230221791850646,0.53082280580744523,0.67396257109202085,0.2726396863003045,-0.33910450366567879,0.7794776350378293,0.74829677795313343,0.93419698264309092,-0.84867979942545346,0.79547279494678902,2.3189232601242113,-0.028712149393264857,0.76746711691556846,0.058928516997744623,-1.6504774292959268,-0.16869399234007562,-1.3241651702151707,-0.30630110882887523,0.19200663406710977,-1.1875501949298575,-0.45687435764666806,1.1888906829459049,0.26664957521525723,-0.82040014350014301,0.4047603928485497,0.4019190833448934,0.30831881831156799,0.29035022426384849,0.06547843344119289,-0.13245069383762464,0.61632398438421998,0.27763898789574371,0.43435851011702215,0.41836153174671037,0.49218678342633215,0.60539127434959294,-0.32012996123291582,1.2713251965156525,1.5674259304968583,0.66719125864232809,-0.60151250052061178,0.26119495020816047,-1.3677312613717683,-0.077202215040314576,-0.12029482078713685,1.9290432431345528,-0.69545205725841419,0.43737260692054108,-0.020604608031120533,-0.84270225076152017,2.1201239128441238,0.1782749764227641,-1.0217217049395237,0.54065206750838701,0.59183365785633268,0.16108355647768316,-0.48029237724813867,1.7155597349587539,-0.1763595762926578,-1.5938195079558359,-0.20111023758940208,-0.78949721669560424,-0.21246784061608934,-0.40644069783061038,-1.3372020393932429,-0.22082949248051542,0.15907060520876434,1.5976020013079126,-0.62172064468095978,0.83487475218841734,-1.2178517882820494,1.0383511352422363,-1.091122277348523,0.11026159860260594,-0.16347451570207225,1.0821642974455268,-0.81834326938831747,-0.29840823222588103,-0.47145083263978643,-0.50845081863431152,0.15849870264937074,-0.025514224370124659,2.0480526842044129,0.50315124566302205,-0.42217041109107067,0.10799491821161819,-0.25781962026386795,-0.30414925541976556,0.61142101170111829,-0.51098035665242714,-0.38359781409764454,1.344492656602329,0.48375173808204575,0.41434027766374648,0.88468386855460346,0.327721452276375,-0.16362832699040616,0.89370754159807431,0.67816670304011795,1.4590077597277369,0.91882249676206296,-2.3483592480777329,0.24709164949496348,-0.61525878863702699,-0.30531453687618121,1.3226410472323513,-1.0696172386090947,0.12765412172757581,1.0781858903262771,-0.79970946096057172,-0.21306857415570565,-0.5479664879557824,0.10770329332614385,-1.0400502812141128,-0.20060166927115905,-0.90828861950990836,-1.3765984242520275,-0.33951577392414606,0.91621156503278267,-0.057502525814249979,-0.43860473812639272,0.15756927069674129,-0.80858431545455633,-0.55020635139736374,-2.1718109350154213,1.098996697418215,-0.95530761261632469,-0.40083870787277676,-2.0637438364171534,0.53347680018890586,0.42655476818824084,-1.5241981970021308,0.12730845605062213,0.31099346613549211,0.40481769522894162,-0.78507709210955623,-0.28629336616078405,-1.2405525207874024,1.1691330608757817,1.0909644470424853,-0.44311945685737164,1.1986564934116772,-0.93403838293755259,-0.27189451857924185,-0.73769483049173767,0.38081097110516171,0.9285286887957197,0.42346369494843605,-0.21692143294126146,1.3044123108879702,-1.4348094315967694,-1.4187576422823032,-0.79337878344831847,0.32985707066598502,0.11338590337569852,0.45835548515053398,-0.053957678112706957,-0.23845086010078337,-0.99520883392827475,-0.78892584117249975,-1.2093220932470783,0.79235127930108951,-3.1250495124641327,-0.32446626355382735,-0.037125685638013557,-1.5014709285051226,-0.41664248538855042,0.27798451730311419,-0.19105499172234877,-1.8290683799002201,1.0224471728347178,1.9292724906298917,0.50272942229042039,2.4940142578218989,0.52876846349119078,0.34207838459463069,-0.48628212649801544,0.39862727048212487,-0.14824105879564373,0.40273534731688077,-0.91474489925858538,-0.43355896700965679,-0.40804374782315783,-0.057061601654086268,0.17459283577714665,2.1830676149999126,-0.70608323343750379,-1.0033792573552329,0.57739550053795463,-1.6282348808480536,1.8636567786385014,-0.16641550198237226,-0.40690103344957979,0.31195601614141627,-0.43169949669943775,-0.10159692027670628,-0.48262342251006513,-0.24965641262911348,-1.6628330073831949,0.87340984810187294,0.23870962064082277,-0.88174216416633566,0.72886720464829347,0.29365316609143649,0.66452349872111638,1.2602589419300341,-0.29644103304271091,0.86473352674945603,-0.19057518781821239,-1.5434345032220091,0.74156535003851354,-0.70150622013246366,0.75477256872996279,1.3045321329275634,0.53322880811684292,0.62361159296249569,0.58446283202772109,0.6884892135243813,0.45264356037622572,0.30767658411519111,0.65384144857277604,-0.94154411611735234,0.32062658353775447,0.76267860339181104,1.6830761773394298,-0.08642423014349529,-0.62977694466678613,0.84402299521226776,-2.000037121760772,-1.7850597004099789,-0.68732941516511281,-0.0052827282627880192,-0.14155264513335236,-0.70479635485732794,-0.27534283322481068,-1.0205406313670928,0.14840158221900679,0.88657163642138737,-0.51343666881288974,-0.28406730260011953,1.7113258866229986,0.80182133624212426,0.23078149663037184,1.4272967150984988,-0.42139862949259449,0.62256455166237079,-0.9101105964634516,0.56573205990204578,0.044405586759400498,-2.1373781052962904,-1.3335586758291138,-0.53936892442510054,-0.1843447546822177,1.7385015340941705,-0.73702329865209792,-2.0322162930398187,-0.11467490326621221,-0.77600484705723394,1.4316181439922118,-1.0348247458656052,-0.30131921266424444,2.3694260569581957,-1.8317992620203498,-1.0516663252288447,-2.0992500590679328,0.76923040806172416,-1.0055027728609951,0.36885259800655268,0.26533627706550705,-0.19778551963715232,0.021354478487715153,0.90478572486967634,-0.50484649009202942,0.36420246506608234,-1.1078296285460509,-0.7359604942909489,1.9441577569946749,-1.9857330069602885,-0.55931869332299244,1.9421288523719167,-0.92526960441139428,1.3560698022385484,-0.95384075328952633,-0.27665716944108187,-0.15812528722513755,-0.097310043872017846,-0.11420559905110153,-0.029435674055193924,0.47633609332576293,1.317091584378079,-1.0642736020255967,0.69154312503898918,1.2657443427479005,0.0018755965704755748,0.76678200173246047,2.2877833111340906,-0.42746850010422061,0.038101439308189627,0.19207075600384088,-2.8134013445448969,0.94616061942088858,-1.1456343502517368,-0.69886956757776697,-0.62396399115693246,-1.9100456538175361,-0.35665420842811518,0.74478641692721237,-0.35388442882775278,0.048691746128229456,-0.61968303154775439,-1.6014086608514051,0.52231495042597587,-0.35821654798342356,0.61672761644009122,-1.0964370957299086,-0.096016471084034702,-1.0356079605828965,0.54271254535651203,0.084539750281894865,0.43940790142460934,-3.0645615730923792,-0.86753511533513272,-0.59307836618102217,1.2851643553291126,-1.7845529713815766,0.66232496799971263,-0.77150381463665341,-1.1074028339419646,-0.71961728816699388,0.29771795564061737,-1.8276288685265072,1.1257068457850274,-2.1113498460891127,0.55306451635841014,1.2161845801662803,2.1022536776406056,-0.025620562491138501,-1.3707312399054461,1.1769752247009575,0.90454079806553234,0.069381078045784361,0.88424140971021481,1.4158304124161647,1.4456406071830625,-0.30627944467347645,-1.0635534185497053,-2.5946809240266173,-2.4539701789517547,-0.10713023617751039,-0.79195434739679382,0.49928783422876599,-0.16945457468247815,0.25485336951701326,-0.19349678362344869,-0.40230069422645465,1.2728687196560351,-0.053368310083743591,0.051745903325436951,0.41928958760319884,-0.64349419224648952,-0.06742331998553841,0.79827986657570693,-0.0868730946425465,-0.68964330602931401,2.2279825831562765,-0.5585161771949575,1.8946489635137878,0.59528534998279348,-1.2291133390423685,1.1059171008034092,-0.30359216244968035,0.46755239158281092,-0.14730077712150533,-0.1358004984103352,-0.80782931981693462,-2.1873175292974492,-1.4797219301556757,-0.80023896591433297,1.4871518048601968,1.1343295870308734,0.25419066588676958,-1.0663999384171023,1.2378456925640298,-0.85699659415578522,1.2947633290723228,-1.3388895875138604,-0.60215845031448256,0.47309341048147074,0.44593807688623815,-1.6632605706257078,-1.4993448517527419,0.6915479494092106,1.1536552708561956,0.59628919056806118,-0.79819647029622964,-0.29547040215231196,0.082112966768253304,0.7230569875671139,-1.2156461463602024,-0.67195172255798719,-1.0029954403645378,0.73231836876630985,0.097775870147618571,-1.5642692522783965,0.95571890278090665,0.70132543091191701,1.9101969175581455,1.50108137890769,1.5647005670785543,0.12771071648682294,0.59914446451414727,-1.5938295601701598,-1.9270177092533207,-0.8630284570622192,1.6461061714260212,-0.15907702406216315,0.45276163795210905,0.5679284146773349,-1.272377803107394,-0.1880682934848957,-0.16253897929825553,1.8083904559258652,0.63493876625445689,-0.0079733768724870643,-0.86563029043725426,-1.9996554892785465,1.3044318968106781,-1.3201685311289066,0.26181852206590578,0.42027209654412079,0.020355253417158589,0.71135545100856601,1.0093275350942055,-0.32772242614295305,-0.75546106667702628,0.22849212569516417,-0.25855751165993657,1.5618005574499789,0.55232195535197537,0.7257845691392788,1.4636538906181877,0.98789534599050566,0.70284634099994114,-0.59155199590114316,-0.33635055388485502,-1.7682882762347563,-0.91935341986587682,-0.46086020022273594,0.37920679964980492,0.099698649143387011,-0.32547110381742173,-1.5110615724408827,0.47318961546913463,1.2710368636102882,0.24103733783041464,0.47253481391296392,-0.52778305334441866,-0.25452905220550259,1.6755783728553046,-0.41800071166634989,0.84393562020640112,-1.0627272687501155,-2.7489089781346792,-1.6628182877480631,-0.20502229515001774,-0.42426320574497423,-0.049009638226727097,-1.8282957398530886,1.3267642773238757,-1.1795545356148118,-1.7179925415924049,0.97630459339812437,0.68998826711505523,0.5018768607395564,-0.1801801721821521,-1.3826987364137149,0.60639864254216536,-0.044508234308041059,-0.17717663816020007,0.28730730113952957,-0.16794682301362521,0.98789101346282182,-0.75559550480542292,0.3605104030872594,0.40322146138193965,-0.045944343799357912,-1.3752145695972382,-0.39521053718316346,-1.0787977909857243,-0.57862232082392495,1.0128951394204408,-1.4739858199669444,-2.8569876975549495,-1.3589969015105787,0.49694233887358985,-0.38096330143441887,-2.5548596094608906,-0.91018937408985157,-0.8804752086777512,0.11995610677325945,-0.011110601904192049,0.56262138765730696,0.1329802601808564,-0.75226403002907916,2.2538462079657879,-1.4922996607005377,1.5248109355230799,-1.1531034457067411,-0.54921033647477568,0.00012127157164631432,1.1314930507606844,1.0951636729033316,0.77133746562222172,-0.60920691933899873,1.2255702639771393,0.47101016055641487,0.15023037037150466,-0.18374733578603814,0.24872181753190045,0.22062671398285841,0.2780140193111168,-1.224244282483169,0.46168817138993601,0.72562356354342727,-0.090944888469549318,-0.41306252901771523,1.5734258405519144,-0.052242644279763627,0.44909755191299727,1.7887145724261653,-0.49307718697268732,0.62390354428586159,-0.17618166354131765,1.1790827311506591,-0.91443290970833413,0.0059249669327026792,0.1669807481524824,2.0889392439231824,-0.038412906918974275,-2.012134608723442,-0.51045765995492576,0.31357144201642106,0.057113175378268904,-0.14538529575058368,-1.0337859481094869,-0.11792784728525155,-1.3370969385264451,2.0730257621272363,0.39037374169685318,-0.29533715933535187,-1.4812812588248465,0.37941921819572805,0.57340940863032019,-0.69627653324234406,0.85782198096205742,-0.89490529168934529,-0.029749473902305611,-0.27865181300866632,1.3777032829701596,0.94772702783181506,-1.2185879409583265,-1.2278742804118636,0.49418862757579191,0.45370024489503957,1.5988873492637838,0.42401282513522048,-1.4439972503740217,1.1052598361190957,-0.11347139069103478,-0.61436635096599668,0.88538799066894813,-0.89721575316432201,-1.4141153471518015,-0.23496011859126567,-0.0017280668190806513,-2.1088270715734261,1.2024844047847247,-0.72198596723033592,2.5396276185948019,1.2657855913268448,0.81646131545585199,-1.6900947456038253,-0.65192460782141315,1.3218299543632619,-0.68516034631792322,0.9136416185920454,1.5585624823968252,-2.0598498851049971,0.64274697222857857,0.728256434630983,-1.6115908009057851,-0.30884435524301118,0.1958125434409009,-0.24161292901689918,-0.0086923763956546166,1.2091262698371288,0.94898167389271615,-0.18452407341472005,0.57642868043772433,0.8291011143092607,-0.42800160176236501,-0.68880999262728526,0.90090494271928556,0.83115721560763989,0.48376981735507857,0.055448803583074559,-1.0159859239660602,1.4859390964053976,-0.86490256351806827,0.21310255144714285,1.1381427496014049,-1.2520016253225976,-0.17806979762733258,-1.9290981322978682,0.33665777078854731,-1.3863413651733294,0.58713280658583877,-1.4308824059327041,-1.0045591526065696,-0.77610795885598949,0.38368340650628679,1.0945348639203407,-0.69456591619027286,0.22382667534386999,1.3746993337225917,0.99191994247275539,-0.19664619650265294,0.16904171577078206,-0.48777391260947445,-0.023490180577929502,1.1348839757783471,-0.46440034858604473,0.36852109327759558,-0.16922305644375996,0.3488817896489132,-0.73157454272446987,-0.049399267015385294,0.064801850225690641,1.6907111978204492,-2.8538336928372421,-0.22035542129733071,-0.05298029183965141,0.070633340511122245,0.1231052570030139,0.6011787049049947,-0.12099892290073445,0.29371082710534302,-0.41740294310456538,0.37184102761416782,-0.40780546827437886,1.9356878907737167,-1.1137514225188505,0.33044671677135151,0.52652047890938658,1.3451977888240318,0.090827141004335657,-0.62094406019607884,0.87416358286787599,1.455428657261945,-0.0070294674941433991,-1.6954587806864529,0.28984836408479864,0.83842607531495272,0.13694260085613433,-0.32918848137832113,-0.8939814082102453,0.62574049060692727,0.2438151051407029,0.28940605177350098,0.20187702746379571,-1.4145131391483479,-0.70576767251725114,0.093836063972891431,-0.99542263471447545,-1.1757334407073077,0.62816870912326583,-0.34480100445602174,0.73961677316094798,-0.14839998187869674,-1.2937611909463853,-0.22122125679152635,0.44129739963752718,-0.93072607680558617,1.6083094782657372,0.036415697330620132,0.76702084082451194,-0.66229073612609957,-1.5353859978748048,0.12603303172758351,-2.130622138373667,0.095461705309777822,1.0676633947953011,-0.58912672921371323,-2.1035004786178106,0.77630945552599762,1.3367657338164236,-1.2000022215395443,-0.30115655890263454,-1.0630205664131362,-0.76139978370812911,-0.1439456361679263,-3.1647074810395805,0.5147366580254541,0.2447562601255954,-0.052263948401475697,2.0197227485113483,-0.2145109416515607,-0.23594761999451452,-0.95564312745352031,0.52722771587993822,0.99639097270431154,-1.1361250262066125,-1.6946818870375902,-0.19928523947721555,-2.7750691672552055,-1.0273545469917711,0.82418041125540897,-1.9327668680693859,-0.69637434703727208,-2.6156021203835937,0.30528471185733796,0.50139040030395754,-1.3471870028704529,0.48191330075786643,-0.25385388470518611,0.94884346475342407,0.82822427879063776,0.47354589841908762,-0.41062088096143573,1.5561606654508635,-0.075622115213668503,0.29442801044981493,-1.7666631851687833,1.1826172997278119,-1.6620318895311859,-0.092713730465211086,1.4861585786059501,0.40734781065576975,-0.51663972604028174,0.68024369576039434,1.6317900864205688,-1.425494688826896,-1.4442617625539937,-1.0944024487727331,0.41114890882608968,-1.0454741684506126,-0.083934284002292914,2.4140143505214628,0.95266303141102127,0.093867080273435058,0.85870132347728279,0.42797412645857486,0.3907189740161221,-0.25167847183887154,1.0283021257517104,0.66379134877517176,-0.51880247584226569,0.11405699619647541,1.1342625344960331,1.4637462131151091,1.3339527770251112,0.73924696846569127,-1.2375549591353674,-0.45649671168553757,0.90737265985660742,-1.6057320480460071,-0.1627207322652961,-0.53128027107378872,-1.6668069753719132,-1.7729990890965122,-1.5152614100035873,0.24455774504153602,0.44204754673059971,1.0685151710832046,0.28232792193038808,1.1034168745354507,-1.0712018501487963,0.8431301903675692,0.39121371591919701,3.7511704994921362,0.40187989873427465,-0.78393597843840424,-2.0402121762140406,1.2929329205259694,-0.30838405247572243,0.018328629586204549,0.051437741365229724,-0.44697684210216143,-0.13984073165670399,1.6533557537333097,-0.80591883498817019,-0.79740971075427647,-1.2929360286339495,-0.39990802967180311,1.4813366645832471,0.77909558739907547,0.81327081720483407,-1.3704769476580509,-0.6616861973209428,0.25324226892293028,-0.039654626947165116,0.84273233775875989,-0.10277604263110404,-0.8542412826123329,-0.3617571803337763,-0.37834930739761902,0.48925426748144668,0.25119979577109186,-0.42556018935520534,0.59243202198476541,1.188331542571039,-0.010273787643881434,1.4584381457200277,-0.56422373648313329,0.5025595593679969,2.9609932581663867,0.32011718277873685,-0.72305831125208719,-1.0401666506964611,-0.064874502057215164,-1.3097592383732388,-0.22807747585487828,-0.36832749501737078,1.4289343587713017,1.5931779419494538,1.4587726029600685,0.56624109601786132,0.20238869096098128,-0.1201866748662654,-1.8570409907947503,0.70952784611551234,-1.0640952089903462,-0.0022885472862319419,0.85779978161657211,-0.33309520999377024,1.3928696637017151,1.5485923457572761,0.11176999100500822,-1.1480103696451944,0.24596222239613563,0.076035649665127478,-1.4379753410051586,-0.79426850711981867,-0.20216706545770152,0.7300889542848007,-0.16466173342023296,-0.42225388298212035,-0.59213563186735196,-0.006320281881762391,0.91633197741695716,-0.37350009574062609,1.0599003385832597,0.55426247080450286,-0.75860024963494199,0.36348755203131156,-0.17809785394314806,-1.7063966670348172,-0.66056900117379858,-0.12733393250506037,-0.044693877412208205,-2.4555793239515054,0.52850205721961763,-0.79358231763597076,0.033200123509347437,1.4127895455514776,-2.0973564770137014,0.21982557649774168,-0.2268162083629108,0.8750378811914058,0.40721195782588571,-0.4270087106991281,0.69414394698011506,0.2065759897519247,-0.15331382211869385,-0.16836173423185702,-0.93603320198290207,-0.56251840023751332,-1.0298082054409148,0.22889937239355848,0.81778862094911409,-0.10349927961750957,1.5725797470445131,0.83419212360796557,-0.15725026543444873,0.16818825679010499,0.01517001542606634,0.9862791537939084,0.75421582548853994,-0.81187288246457601,-0.2497979364843618,-0.067567737366778249,0.31740106296252169,1.6734205568414817,-0.52053665877451372,0.74850425364669559,0.15106662011579719,0.47881787681517995,-0.30961630931844886,-0.8089411654344163,0.37736961672632918,-0.44129809630127798,0.060657128880230754,0.38706318689058228,-1.6322801714292483,0.08998351463401584,0.86411746674675038,0.90199612834429044,1.7558275414328119,0.71076462369926618,-0.18556157279850397,-1.8943759794183193,-1.3538823153629764,0.97435745574743038,0.42757187546941705,-1.39745557444735,-1.5509855148551772,-0.32126336924608767,-0.62238294725848631,-0.92781992778729072,0.94039912272760395,-0.97370503010885112,0.91329906623009993,0.99332899480915271,-0.59812951280807047,0.42135616063293024,-0.47878046964194654,0.26626321519050405,-1.8393237787720425,-0.87877497177400743,1.282723525084869,-0.32986553508994876,-0.086933623364843698,0.72035572312845009,-0.48002481179875967,-0.15608359160992799,-0.2216415857896428,-1.54425699483448,-0.94939625986324339,-0.25690519326140071
