0.26188940578863434,-0.78162287597291658,-0.89156386529341924,-0.30934463718412669,1.0810350943353766,-0.24467243686591209,0.42396017767186384,0.53122341492781944,-1.239954156496869,-1.4099263288593544,-0.70148035403339271,-0.71883365165546875,0.31963071407033472,0.60865250228027701,-0.36185861312406303,0.74589124541783725,1.1455005430675,-1.0562093017527745,-0.12026081667195283,-2.4334282781223515,0.40982673029641103,-0.46823801089413736,0.24453810119376063,0.30477393253190782,-1.2454908577151957,1.7944959982287978,-0.95005062753937064,1.4667227180169933,-0.30465170876687708,-1.2674050985293213,0.18692263358138028,1.9066337066728822,-0.39564004966627186,1.3478910314314969,0.18240152489938896,0.13162868788575213,0.25490480207799332,1.2076139528926255,1.2213563836702148,0.41129185509295652,-0.19117188693223705,-0.40491821581026016,1.0334899126413608,-0.31209636090609671,0.59368085471444521,-2.2983536417029033,-0.87262329425223728,-1.5782836387831747,0.55312250979428323,-1.1312283884886205,-1.9190838589741177,-0.61597902576221286,1.216851821630208,1.0157042608923703,-1.4654853831878571,0.21596139658518149,-0.62157999148645271,0.21985159306823876,-1.8137563016567493,-0.87974392189793893,0.43797500508192949,0.56273872472666686,-0.86014030248155726,0.23252865290751765,-0.27438708491319586,0.5169198652826813,1.3560809395309092,2.4535872562487588,1.748087493933234,0.14809894700500686,1.1926783478988756,-0.06807289374682253,0.87508602725615225,1.1966041785447104,-1.0966699615150839,0.28491707372041919,-0.91542359745914792,0.9401595211920164,-0.55034148433910568,0.3572064752474377,2.204680427953138,1.182294481034583,1.7952863277965194,-0.65063264504688667,-2.0002748270228436,0.55991826993039262,-1.0381689874369491,0.59276866217939839,0.69300286003175593,-0.11886247712079905,0.24586026382942949,0.37055820270664136,-1.4100910228182495,0.052236554386978926,0.60053449304887785,2.2041157122144641,0.27629683157549301,-2.2192441485363714,0.51596264271902037,-0.34349876569795512,1.6013302359724273,-0.82338751241543939,0.60451917782855114,-1.1754260893195914,-0.19049402533877038,0.3508587503412558,-0.33818307785341067,0.27418961972365008,-0.52652756818311675,-0.080186744199488819,-0.096697460734901874,0.50255577338311463,1.1862900274881962,1.3247713261180023,0.12093101590292003,-0.0086299604081951382,-0.11412824564907663,-1.474854553258655,-0.085051410871665456,-0.086947213033460979,1.7580997060422419,-1.3948079840372332,-0.9726419150858302,-1.6038677719250722,1.3961821912848473,-1.3502918525004497,-0.01166501347614422,0.076791621148263531,-0.54223591219791323,0.48081007895824568,0.98859239401509957,-0.6355409545092503,-0.60807618032367994,1.1959302425893863,0.65666611583191181,-0.61740334395127805,0.45707541134134466,1.5015935227414874,1.2247234113637306,0.0013435481602054546,0.73568382438968083,1.6579937037860828,-1.5319446009478603,-0.31227705226161162,-1.2871460475600514,-1.6589022978611665,-0.90656675236561157,0.0023869609327788494,1.018617483553055,-1.0676563384285158,-1.1877134415801662,0.68931481695850083,-0.75239811352085384,0.88775763687836828,0.87571167697350671,-0.73440315865956063,1.1024367015008676,1.8732654435563618,0.21449082530588603,0.067403450388474173,1.2838331313168039,-0.18222299115837581,0.63274546707119383,0.14505447587217829,-0.34033374526059701,-0.072637141573383704,0.24461513998429996,1.2628754001828799,-0.75632591837681529,1.6155032105759344,0.59423359531424746,-0.073251990985528107,-0.87858814885804337,0.97231862837191763,-1.8570750983317639,-0.16781040586825371,-0.14884804520481151,0.37485941801738959,-1.2368109231569955,0.47624895286412561,0.63067702174465801,-0.43428504869270851,0.83631162921527935,-0.14342961971401327,-0.39073241680938869,0.67462624985557518,0.04308057251395208,-1.5545256989259941,0.10237434696133613,0.72994038884759438,-1.3242389627318367,1.9409726605043836,0.59512684842206931,-1.2889267683836785,-0.61949359391392156,-1.5143898824689905,1.8532605788500855,-1.1347463277819207,0.2575660156901437,-0.88182085010091715,1.772787724957529,-0.034699510060910356,-0.32855276030267472,1.1700986193801257,-0.0087829234173084601,0.272489492153768,-1.7256276532745185,-1.3273839798629326,-0.067474660173307513,0.65275527871422778,0.44370986366257825,0.30589347375350051,-1.3083059454520984,1.1813266320965226,1.6552281039419139,0.90236802617998424,-2.2475773852824195,0.12432309194512604,0.87231957771202462,-0.69263411100405692,0.44152219446363872,-1.1662766767629844,-0.68189742504485085,-0.099784205368564471,-1.2544617720711446,-0.21378264986433768,1.1521356533324805,0.07410768855360636,0.5493195247315753,0.95454349729223986,0.58058434997261765,1.5060743601020214,0.58874097444922846,0.078569921270279994,-0.14719012151342703,-0.39695867091298759,0.64073990554482518,-0.69373735504694301,-0.36334540475459698,-0.037421046556269391,-1.0221302235915031,0.57200656920623694,-1.9488775827299512,-1.0922550057366658,-1.0388507803259726,-0.26221042766647235,-0.62134635786105485,1.3574000244982205,-1.2907168908142654,-0.68278583194194031,-1.2563032315261591,-1.6006142089114412,0.47561674098759243,0.56604858939984015,1.0563242043716097,-0.96851779914971781,-0.93591150088713504,2.1649531876145161,0.30439166264734446,2.3493929230115471,1.4452896565072826,-0.6338640307374297,-0.22075270547021314,0.87667664943058354,1.6615857235762106,2.1984922744516426,-2.5264887948544557,-1.1451605843881836,-0.25149262989462812,-1.3820808565362399,-0.45492152628373334,-0.21901460590042535,0.42283697061888076,0.18699895182049972,0.29096322856323686,0.54254129243835614,-0.55387192850189737,-1.9752047623505626,-0.60411726404576993,1.0970269410621458,-0.93823423632877978,-0.2967286636194808,0.76825069152047532,-0.91796938969779274,0.71830034819188193,1.9088233557617258,0.32532792492771445,0.74551718262368194,1.2731943256422358,1.9091160017965878,-0.041662905614374371,0.66374500592309227,-0.6026506197928263,1.863751397971471,-0.15786889308440258,0.9151958946774057,2.7707087927825405,-0.45455749205892165,1.3232707200810903,0.70900384840513087,-0.93700804698635853,0.32680170201698333,-1.2266468563256356,0.93158570250768891,0.031963361994162505,-0.78505630236598067,2.2307064482660519,-1.291998219640907,1.9591192930016168,0.39138733006547743,-0.84700580333200115,0.010813220478826378,-0.16005753804427136,1.1975794417566314,-0.76706968467823622,-0.25825740583762702,-1.4022097411238774,-0.0092608016931522152,-0.76725653135302874,0.16916614403526176,-0.11746790049438863,-0.79708310095327317,-0.50043823933347109,1.0958754777245663,-1.4000145107155451,-0.019667334708241453,-1.0884874385546677,0.669084185121119,-1.3589634439026559,-0.54255004237042237,-0.30918039212858578,-1.4314469768001135,1.2791988385862731,0.476775766382874,0.96578835562018439,2.1417498599117839,-0.17594651741209238,0.42812158533428346,-0.10964571642793175,-0.67471920805279817,-0.22328030819929667,0.42255090407160378,-0.22503855276050755,-0.46469535040403959,-0.43914473123928177,-1.6211488078404617,1.8705607125481738,0.91222641917128666,-1.6577803792965375,0.4906085727750123,-0.26045518384091959,-0.35375952865329036,0.38959103056238792,1.3951244784699752,0.68944330711094282,-0.52732493541402203,-0.59806376465144218,-0.49670739922526486,-0.16013639050189515,-2.3316428805812892,-1.4639321382991977,1.106856630062371,-0.043546736384568283,1.3441374688508416,1.1803526391305466,-0.55187668352796793,1.1289404987023621,1.6724598385217577,-1.4772033398002076,-0.11190712549166652,2.0072561251537842,0.19233745761409116,0.51059513845973004,1.7800601804006058,-1.018845780914162,0.45614837381185863,0.50372534639221656,1.0840313560530954,-0.52443438933468733,-0.74052389393206675,0.14904179602080758,0.33389327706926858,1.2761279257846974,0.67368196507716782,-0.26762794690993119,-0.67491330528741034,-2.1379872769791253,2.9832679688014383,-1.4293952957911424,0.80783721131410147,-2.1319579588382482,-1.138897050761096,1.0746994923791384,1.7736798168459242,-0.95007538204834863,1.2915428844221453,1.6461795604126177,1.1428878298732594,0.93853929792829816,-0.90479003618577525,-0.68276909745413261,-0.84668946259220124,0.19507336900353386,-1.1584187861499553,-0.27585633234233686,0.46451375969636716,0.97731593251199611,-0.96193035640671631,-1.741610574747684,-1.8386756753254019,-0.85390803302484375,-0.77541765869129542,0.8110699491647001,0.17214082752667875,-1.4224727914514956,0.98480340512836939,-0.68243200727777664,-0.32768255167627325,-0.039741521448257225,1.8760911521229577,0.45924464349743349,-0.99755891065595137,-0.69729595381803822,-2.1948300180982097,-0.84072195088217738,1.2880411314827902,-0.040128757104680127,-0.42146804550384437,0.29356195079307557,-0.20392223444490204,0.96491253789011799,0.024800860447127426,0.62516116524454723,1.3511530172811907,-0.50860845417801182,-1.0659062566688995,0.28926350529071443,-0.73183327447653612,-0.60157138243559771,1.1146547472146826,-0.014010824081478739,1.1087582231434878,0.92142341871634392,1.8839291607389412,-0.17637229030589699,-0.81556060969264221,0.12531156093447712,-0.21797556217739153,-0.5517679206790761,0.40086986881845343,-0.95085704354005285,1.2233273267330982,0.55248009277545096,-0.65841092298828174,1.7649236560099619,0.61212313716399791,0.72388907721971751,-0.69372156289965847,0.012057510706655016,-0.9351989320110865,-1.1917807663208129,-0.74594820163784792,-0.44677368838604498,1.4569011066606887,0.78731924185620261,0.59313857643330048,-0.21334606515533133,1.3201889427631026,-0.083372186806209919,-0.40189391993001655,0.86453798708019702,0.067083489926058962,0.30980685551593679,-0.94628224022918417,-0.25426577756946123,-2.5028685807448441,0.22360244227390005,0.44079899985510268,-0.063951347079733614,-1.1492110798547202,1.4695728022630314,-2.977466216742624,2.4113721955395637,-0.40481159699722163,0.8686868977265092,-0.19491651992189249,-0.464470862066729,-0.27873934436263892,-0.78196007616565333,-0.23902311625739248,-0.32906387872710752,-0.80881961711943084,0.77302305322640108,-1.6962970181019712,-2.272141869663352,0.52445054787253376,-1.1130668161457486,-1.2373452727219836,0.34375101065758235,1.2787836534436607
-0.88899789992706679,-0.036699576595603668,1.1492576260148031,2.0234453751795711,2.4345177967430711,0.018865485074282071,-1.0739039208767551,-2.030908557219099,0.46916632220033566,-0.28311146288152023,-0.48962542502543033,-1.4285332917939204,1.3294833262852677,-0.14549451207430475,0.19556035265811006,-0.17143753856929264,-2.0864581585025301,-1.6982834577735217,0.42430465370485065,0.56126558928630899,0.54602082526311002,-0.51204192250382297,-2.1863630565783625,-0.47778629487329061,0.5242200534739847,0.89916345961776656,-1.9247173955731551,0.47675953517731645,0.79845864510879494,-2.4514809300015097,0.24908908873643101,-0.058042503819896965,0.56372985283286881,1.7086295231831576,-0.45278137766057941,0.083619492574881937,2.1521863171291837,-1.6604422129452374,0.89194338862740508,-0.32286848449946098,-0.27912668083932834,-0.10885341500487426,-0.13748618058040712,0.18465082286794621,1.0239226660272851,1.5092303593912648,-1.8600251000713215,-2.308949675819937,0.95801785856445143,0.41806045696631633,-1.3556551680787965,0.20897292244817289,-0.73519028961204858,1.2861296116885699,0.64689309277431994,-0.75489131732494053,0.58106179045959738,0.53597533228468486,-0.32581434273794441,-2.7974230553752948,-1.2847694445421145,-0.71033915379901513,-0.07434606057980632,-1.1093458604169779,0.29750011729803982,1.7220195239329652,0.87667992903585146,-1.8084122722982778,-0.42147305980651262,1.0966441887730303,-1.1045478569359675,1.090272024455661,-0.099004684565889872,0.2839619806360712,0.77644802994299622,0.63263778457886211,-0.92285039749993658,-1.8162519030823685,-2.8558233343669843,1.3175951419047889,-0.54373963799202052,-1.2255988177967931,0.10773363808744259,-0.67014884545873776,-0.42461686612346039,2.11218294564681,0.86541701328379916,0.96427263242551486,-0.74761439925532358,-0.24347990889265383,0.83645730923508244,-2.1464670871173901,-0.18990580999898285,-1.241907912168279,-0.74022493071274986,-0.091444817911993326,-0.20756284923537863,1.0791292320000443,-0.53333418431138724,1.8675852738005114,0.76621866965697993,-0.66818005002234637,-0.30059174720784942,0.017796910279215851,0.36747550219547348,-0.012854956855662071,0.14115353878494485,-0.085690220676160098,0.70120258806615943,-0.47804047468917205,-1.6568329116524039,-0.9931434966874586,-0.47087851675007297,-0.23031785860383097,-1.1264081821154099,1.3723595898978007,-0.42087850575776231,-0.83216420737580754,1.1899368094555565,1.277975950426337,-0.53256949424596933,-0.59251749253500596,-0.52017074371060368,1.59884902454532,1.2204393854452991,-0.95653743301641159,-0.68517289245486535,1.37463623374477,-0.34557917475996941,1.2941214554370957,-1.6286255960896105,-0.11227314273608949,1.7519174165248188,0.10403082777748347,-0.55175042152554776,0.43641528852533257,0.020718562941699221,-0.0021286802725958226,1.0046138015225441,0.068044735961702865,0.61653956440242319,0.26369268048973338,-0.66143887362783549,-0.46680087296527661,-0.56930600289838729,0.78979558362571733,1.9291396880054368,0.13594223342584497,0.54676897912574707,0.60803965798596149,1.5882813147110768,0.43376353254630595,0.2687639625380891,1.2020241401735332,0.52166648405133342,-0.20881659207705813,0.073749347203925536,0.64674236754433512,-1.3550720170783186,-1.6175156037811964,-0.23583982194449146,0.43391799950082544,-0.84027807041394631,0.78961299095095394,-0.075183115190644523,1.5414397703007801,0.49052046346139583,0.23714117108105426,-0.55907268867916937,1.3544680088219596,-1.3197214826662527,0.26493978025714432,-1.2864392186459677,0.89741345184028276,0.79178501656913836,0.79083001027828126,-0.62659696170652845,-0.91935130739364812,-2.0229498883241601,-0.57132713137340385,0.54920975438477559,0.5536848983194238,0.24776241538262947,-1.4381387312361547,-0.09133040039915799,1.0567220255988494,0.3691014542256969,-0.15862299235688695,1.0807528577523069,-1.570822887386077,0.87653942255575612,1.2289413181443574,-0.32808718041815077,-0.47871764268166583,-0.53410472585688762,-2.5351464827885017,-0.87508294207558401,-1.0403287448132237,-0.032025036985658922,-0.57845948748981957,-0.52684569295958261,-1.3793354090086607,-0.56606450767841987,-0.25404246578519868,-0.61428142866383906,-0.32294012187573867,0.90559858355075451,-2.4798652717448721,0.13657018518918065,-0.34439715286414546,0.68218778977077066,-3.0475991941684493,1.0559118170931936,-1.9380097691058329,-0.60005520323077755,1.3146582176242794,1.2399121801689947,1.6234306985022113,0.079714288264564725,-0.62839826844659796,-0.70356136767097166,0.36789996567217659,0.58730194734058905,-1.2502715261772785,-0.99830654424407528,-1.200141588292658,-0.67099859612436452,0.83168733648520277,0.89159995697741157,-0.39563228214996488,-0.36927455385730745,-0.77455224885730878,1.4230892401348207,0.33706542115924859,-0.64362233373495703,-0.6615180141665653,1.1238599509469787,-0.10763647836870181,-0.38670831683624729,-0.7299072949804305,-0.87770141582989436,0.59350139013669301,0.89217085116971506,-2.49735178666044,0.26556015360604807,-0.43016662347960621,-2.2488808932762381,1.5349861202700028,-1.6811362132362315,0.3494065849364742,-1.2913353017744993,0.75048970339244003,-1.4179865666199472,1.8952770047722622,-0.37596364409334476,0.085494550298194957,-0.27179336755334921,-1.0710330158112906,-0.15855908114013267,1.232269137273315,0.53016647581264209,-0.15519430980321094,0.17278004226758376,0.66695348886552053,-1.1790571690506078,2.6569166807581035,0.28564717522164712,1.7962141312619797,0.2345889176408095,0.16090319008283274,-0.6263506057210807,0.015893236044215636,-0.66633911498220011,0.22799653252412994,0.76576860612633568,-1.3936252260679041,-1.293402499503153,0.80473311247265789,1.1790743192738919,-2.0967113255764498,1.848926577803097,0.30168208194021384,0.062428452171791451,-0.65974427193048957,0.37362829219929683,-1.660503029999651,-0.58881932176975238,0.85648054670732665,0.076900827353131793,-0.052726428387286285,-0.1945639171029756,-0.44826854668450461,0.16735224456579215,-0.92367873347037843,-0.11120255797152266,-0.12701157872847102,0.70420207497899701,-0.020476138052396075,0.85235005086969884,0.80458056286637258,-0.21814918196934099,0.27000939056050943,-1.401750776930843,1.0279704210603442,-0.44072936923084666,-0.41900087715750861,0.86903785566653657,-0.69716997289789773,-1.597922388835842,-2.4958447422422814,-0.73586994585781385,1.4270843073773245,0.97509309492238427,-0.91764161960595869,0.48820470401392485,-1.5456122350636681,0.1058338131736529,-0.76174609644255398,0.17797361099577041,1.0746390288927175,0.7967914758832142,-0.65315415374795804,0.060533470536828414,0.65078287715296956,0.95084989706841028,0.20270585436897079,-0.89055599692834064,-0.41810423312932005,0.34895204564659038,-0.46805505063413311,-0.28933905277809324,-0.28410384128959371,0.67525233789723926,-0.64864554316864609,-0.50982952777769353,1.6539043869490804,-0.9635414084648608,0.57793128005914007,1.574746171732152,1.350779383008692,-0.73441191044980803,0.054048338245943919,-0.88792602418825506,1.1406841524821554,-0.67015041583986279,-1.9570690930582297,1.1030069699998899,0.89081642242468762,-0.54809417469192367,-0.44958504114508185,0.86309262065368586,1.9418534124782332,0.40054250862785173,-0.7257538143571054,-0.35495356729900596,-0.48642359078142339,-0.58212220079182531,-0.4219570732596577,0.45159172564499095,1.012812829902924,-0.66150523764209634,-0.30321099499681775,0.41687519421368735,1.6853160071547468,-0.81032123415146973,0.28547720342125349,-0.061919855398925513,0.28913937844715187,0.49030267142770345,-1.0000192607126022,2.2175213310170871,1.793396488973046,1.6365435295647863,0.0051665132704214875,0.38630899817553943,0.7661675363870839,-1.2856921970077069,0.82735136123817854,0.79820972630321063,0.570859715060547,-0.33708378478042311,1.7827902586406024,-1.2954564327271854,-0.060951147840968237,-0.8538198386150091,-0.72554787558668621,-0.19227522686346762,-0.37201091114729762,0.57956915792724062,-0.47536030818846142,-0.97936613412651963,0.72396860545134945,-0.068856368471056736,1.2292085838040041,-0.18795838362935818,-1.2696956940242334,-0.40543864806695223,-0.41033623196846497,0.40135661026661063,0.093439151017725902,0.14068114889322214,0.14336720601548567,0.15339152778750539,-0.90873810989501691,-0.47895706266643268,-0.49034803053246684,-0.7642235834335821,-1.637551915321221,0.29312502098135657,-0.39085812015279825,-1.1488970557225362,0.78166745932884329,-2.0399475086771628,1.3821641155310447,0.41558577800206509,0.3292744347369142,0.047059768263172437,-0.13223875591470263,-0.97577959502380818,-0.2058395751123247,1.4766825070950547,-0.63212593319858568,-0.72524260745263891,-0.46200460397586518,-1.7881386176365892,-0.32245723623575184,-0.094475675609745555,-0.91922307923122748,-0.82304502956680281,-1.1919147595012194,-0.27902645110677493,-0.76969927253203052,0.15009046944648877,1.1805947199427678,-1.9111043516876731,-0.76522722706471802,0.60377511205154089,-1.1313585315788302,-2.0807960053577923,-0.29659948612971276,-0.033943426442510208,-0.86159679027844305,0.054309086351008569,0.38175072257298115,0.93705062726349098,-1.3034816084708545,0.34384574518239386,-0.63734449049384057,-0.58311554051940484,0.10925770012258602,0.33496856618842707,-1.2527542755819552,0.17965725412694875,0.10261747889630085,-1.426438093915118,0.36151951745927702,0.30355690708154376,0.9137944890697155,-0.96823558723997472,-0.79069611435596876,-1.2110698801358319,1.19980557791651,-0.10535259842205361,-0.18689822437452183,-1.831411018693381,-0.8609030524016319,1.9468974685978475,1.5299197030448697,0.46137711753367205,-1.637472914546181,-0.39946948130462495,-0.18733527675701286,2.0183331265723363,0.77694651802386927,0.53439649041347703,0.66284118680879967,-1.8013039043672523,-0.35343496164391353,0.021385833958480205,2.0710814429795814,0.90594763601390449,0.41690504822296265,0.6415476799803449,-1.4679574486011302,0.6080965829612015,-1.2194535890677913,-0.1526817410246579,-0.5119840300936197,0.85079745539893203,-0.25933925362638366,-0.79893062907992207,0.234062790636689,-1.3103306459437174,-0.32245482674799542,0.34900468570565357,0.15257150952490159,-1.0200654439540897,0.010973841261028265,0.7892788889790715,-0.95009807628269416
1.6470408037661475,1.2415845263389136,-0.0015995193859306559,-0.69555708716898079,1.2931388849262306,0.50168502483246047,0.96222206894809481,-0.11963112871109108,-0.033502373063618397,3.3357347533781962,-0.75358933372928705,-0.64848276365604851,-1.0651742881442141,-1.3807635353533259,-0.62519103070891002,-0.63863537322001673,-0.50973208956357596,-0.053892311214422443,-0.067698171982788435,1.1141286090437823,0.98230075507603465,0.10656756319401652,1.803296396230869,-0.30811158400191002,0.65260738945970687,-1.1724942068902986,0.31065677000081998,-0.37125576122197929,0.53315922393651438,-1.2123494567034387,2.0783201767425936,-0.19624628633124935,-0.61259841733493015,0.15759536448037809,-1.9142006575939281,-0.18032005267419313,0.6134503987217933,-0.21363511359362206,0.30133951732661929,0.84168133928507316,0.4444293527473438,0.40958124850519068,-0.3563094665351777,0.7537364242154454,0.22693591548226333,-0.32657139502688171,-1.2464902068166406,-0.07536234335892289,-0.33913099996355356,-0.4459992277743694,-0.81900023823438928,1.0033032394762438,0.82931107701327189,0.5226664445042305,1.2162024387239607,0.10397803612948406,-0.62361307496832696,-0.16136097096083762,-0.2365986065276863,1.1360968542628516,-1.0266017834184249,0.48316713376922393,1.3848643341318816,-0.96641376019474035,1.3868388715735944,1.0826726547645573,-0.19964726029590713,-0.41590214325435465,0.29185078292600697,0.303291610293761,-0.13336714652167636,-1.4188010957254711,0.30419233321822026,-2.3556420778614369,-0.86150525970999381,-0.88825491877267704,0.077358079015960479,-0.19269953069992413,-0.09039729695849015,0.65142115819377666,0.017071769492687669,-2.0430234637070259,0.060909937563524807,0.76299998394645907,-0.047236875288914848,-0.82938990882611208,-0.41018358272562361,0.60182945777311903,-1.1266430254076936,-0.41894811924137548,0.42793191340456144,1.7139490437562455,0.18571332759340428,0.52688693064122394,-1.7788623925931484,-0.16035105811532271,0.34454897833646797,-0.24064682236093532,0.08914168577594267,-0.82058950955473009,0.082393140271372109,1.2910488019746758,1.688008043103602,1.3844487704884212,-1.4214189107434172,0.94333468266032605,-1.4201744438736128,1.0113560307241982,-0.35800478771378536,-0.38074235799374151,-0.040081977392962258,-0.54114322630917133,0.58538434678879059,2.6871762834829944,0.16587506439001451,0.33325906853950482,-1.0878368969320193,-0.43703234938289481,-1.0952343185381304,-0.99112142115520852,0.18557685124062259,-0.16517257352807474,1.5990085665991198,0.22286551635378976,-0.74707195743019916,1.2602753958595809,1.2037387434285276,0.94761775209474586,0.21444919762144629,0.35794474299635926,0.139090019170793,0.55463727341861935,-1.0457792074249084,0.75783760935146072,0.70310889062473336,0.42157861504345934,1.5175376801853295,-0.083186757776784873,0.027384605518750708,-0.51325974829771348,-0.44250756117717316,0.41213010976917175,0.35595156887111346,-3.2193455533800464,-0.75820311869710633,-0.44778779969145061,0.40704163738681431,-1.1520651279498109,-1.2210739340483039,1.9395744124802896,-0.46427315123744561,-0.017893229258252125,0.1861518897461496,1.0959344451436883,-1.6000566279287596,0.74324478653138371,-0.27090435857480327,-0.80592787262233545,0.73190895883078566,0.47087141944974248,-0.93017996150969062,0.95063380995239011,0.41928138489110456,1.3426619112322293,-0.081080197916669469,0.014100980214244321,0.16817709678592996,-0.86599915252032456,0.94286871245494897,-0.65040804846388367,-0.47218910312643114,-1.5242715036814047,-0.48464161924057436,-0.74871983914259355,-0.12539203549222228,-0.68220378803073234,-0.36442694553420746,0.90427823435029975,0.98336140151589713,0.5865250513957575,-1.9767329562927045,-1.4275655184628913,0.47586416962435302,-1.0550732338100044,-0.59812481257330596,-1.6517500090246819,0.80191062893202425,-0.74381136372895973,1.1982024946336374,0.25123639784266077,0.10346503693441715,0.5869394986170875,-1.6881142938488474,0.096067968306802212,0.80401135546454872,0.17753632487534327,1.3588166073914343,0.60246610907613407,-1.123190787751766,-0.80156537778097259,-0.9090656468281676,-1.246417191281856,0.54871377118566145,0.36343362285351644,-0.65933109461795703,0.092445588546593377,-0.17685697409203641,0.13422519549822942,-0.61564376730037884,0.71153041526644345,-1.3622853875630927,1.7229023326687414,0.23351330531156936,0.10294597501467161,-0.93098789945333038,-0.55028968455887795,2.1598979807983367,0.35628894228127123,0.71638580183269374,0.57155288815462568,0.10167185882457233,-1.5537168451405832,1.721633007768185,-1.5812709795634317,-0.77038492273313919,1.8323687510767326,-0.47638712441753034,1.1290100591516186,-2.434772798365374,2.5933400589790088,-0.15736588838523904,-2.5233252816528369,-1.6037353893211874,1.4688932160315724,1.0845540467577148,-0.10608424900876917,2.0361105795117727,-0.36645249052906065,-1.4796458138818229,0.086185005198181661,0.87438793829451089,0.028365088709425015,0.92282784089090353,-0.42118084019254487,0.54813696119109201,-2.1167384510007903,-0.82542037738978746,1.172611565398189,-0.57111393150582512,-0.46656620517512398,0.85273356447868021,0.05829104052529719,-0.59960516885254955,0.69971288352069894,0.59310422096015913,2.4198742158297306,-0.62114244587360157,0.9580711946662186,1.5908766245621333,-0.57679567141322263,-1.1668800662635048,0.74799494348745044,-0.15304256040199227,-0.070431234072703366,-1.5160501495286127,1.7257933408436807,-1.7727704503316106,-1.1953556709498696,-2.1270197682248599,-0.27793428096670758,1.8549565205376841,0.071100692207638413,0.3469027278021159,-0.6342068641928974,-0.26890163293554387,0.8217222043639465,-0.090508956562541196,-0.27183874497903771,-0.33227961058902139,0.12934921076279213,-0.41746974333796261,-0.68834969293606574,-0.47724237474216596,-0.64380178094951224,1.0099347105756376,-1.7954863316543543,1.3862246780500733,0.66692281712080337,0.71740846215978327,1.4790538732936886,-0.82974121718408067,0.89523745925030629,-1.1303840995904879,-0.26061411032483933,-1.0093362551781269,1.6230374998920551,-0.3091645541479357,-1.9411589666293627,1.3358458909575404,1.9229505099222926,-0.70830219352460699,-0.51086513458588478,1.01575712803749,-0.18391779926795626,1.8710657713524113,0.38762824650520122,-0.46129656905813549,1.3691244816316224,0.95815921075543997,1.0566228899006096,0.89254519206853522,-1.4559798462021243,-1.3845561772157347,1.9445650237191785,-0.43729938825171522,0.73376986467644245,-0.8824269127447868,-0.34952790501335362,-0.26747581101184514,1.3126913029799856,0.32231822573036778,0.67562472397490048,0.44641718566949123,-0.097465783266851694,0.81789666768112135,-0.049254034774381956,0.26694238664999109,-1.2314020646115154,-0.97248827509774605,-0.21142000632400085,-1.0038217364103201,0.38327753977887896,-1.1299257955966768,-0.63746430448706004,1.6098357282986249,0.0024186400252490916,-0.72695986539449797,-0.6248162260846265,1.224109796456925,0.60290131004743874,-2.4020457299213156,0.84301591164161982,-0.94250366954303344,0.61675277849669807,-0.83447953474883607,0.35925717102419535,1.0249300918503124,1.1406285431664398,1.543344094526651,-0.67575719809836654,-0.0050558951803153012,-0.38348415356671062,0.37800132352786014,0.014644248198056424,-2.7795854612296136,-0.43645575279911819,0.57640622585384427,-2.3799482042283033,0.11528515541297903,0.24820151943420687,-1.0294676980404436,1.2763177848176144,-1.3560462044241768,-1.5512449092959115,-0.44930795962865405,0.61974963624728219,-0.16861603355057939,0.14505749476811514,-2.8063317513048522,-1.6504554302029804,-1.6392954445253425,0.020147444809306664,1.1969299301412055,-0.67832717420722066,1.1117358420321335,-0.071918818113694022,0.56416982176765085,-0.25655845219597739,-0.81131880953625757,-0.82112956088174993,1.7105904946568178,-1.0463548442914357,0.11204026954452494,0.15745880065018386,-1.3103188502378269,0.51158486843023521,0.53884075963114708,0.76170984985964285,0.60973720056566327,0.10404864877227707,2.3700412014861212,-0.63139014137520455,-0.041663229911625473,0.23682406018649976,-0.58898243248523596,0.24857422596914014,0.74884045437628932,-0.71002325229308594,1.0998605545727043,-0.1488831805752921,1.5717151302338879,0.42836865364478355,0.21972964769502445,-1.2614540309566358,-0.091010309669860331,0.61414189387990625,-1.4049684325249265,0.41993714784199226,-0.28948933746825967,-2.0177424834695787,1.1785402506931131,-0.56690876899360521,-0.1327823005512766,0.1027150316974081,1.1428948889540609,0.44604326762903324,-1.190683706239513,-2.7578673247803578,2.220142173605482,0.7123823061790806,-0.14500211863966758,-0.10047864001744072,0.49436272300740086,-0.10887149995201352,-0.37764171347448672,0.85445749821771377,0.90710498029020215,-1.2628382876709725,-0.098701513063640625,0.50835726997247577,0.36445743132053821,0.59843022697424253,-1.048540819886804,-0.88184024709237063,0.24687021478309129,0.42575110476292105,-0.47236319426044271,0.052235752452490264,-0.66715505914130369,-0.66987683350083616,0.25321422485596967,-0.93246502597086955,0.85029582000579518,-1.0563357139837828,-0.49576749432366574,0.3234256194117438,-1.2557783976491386,0.3373999394584834,-0.51128259696608958,1.3891270692943605,-0.28493979826814275,-0.31922249228313448,-1.0801937624945464,0.79944184983679245,0.77887163871737841,0.41043719786362193,-0.42155245517830769,-0.6924041598416768,1.1004593901841597,1.2544370050336262,-0.095248846058096331,-1.5615241171924028,-0.27995718910506401,-0.95623130337109696,1.122967385841658,0.079511805182020792,-0.43041833931919371,-0.77476782540646805,0.17205815659000942,-0.80897358095920702,-0.96502761613790344,-0.2492636790765442,-0.55106227604621905,1.4547087966944741,1.4474228078020861,-0.64194718428410313,-0.74769396619876116,-1.8079573232303179,-2.0297296760648882,-2.5366340571565251,0.6207726208867137,-1.121924281738419,0.8713435072989949,0.99245667046200714,-0.45944055104236575,-0.4039470430107866,0.78455552858538002,-0.25517840844335138,-0.58855910603253969,0.65042237797850622,-2.3773431881254115,0.13409842974664746,0.16059838800736059,1.6206454420240839,0.39782748767863563,1.4282784692219721,0.92986481377103647,0.45417437742258393,0.40655148388814283,0.52969008465624789
-0.066547492308702494,-0.74030289174532116,0.26535070366162522,-2.3467740776716006,-0.39258013087845489,-0.50252983312107391,1.2839644691369645,0.6894613621782566,-0.05710339013729044,1.2884189981722012,1.4152540102083799,-0.43270504548179411,-2.6264654155048155,-1.1890221460964157,-0.76593047708919326,-0.50753983371242617,1.4641654340916237,0.94253336437030766,-1.2138367895232063,-0.5778023672356507,-0.03522096732638777,1.2913301280600804,-0.94730972073749475,-0.40658891071802933,0.03117744765389097,-0.27424804258225027,0.67293057389744404,0.30343610027068135,-0.36368973443829822,-0.22675351708198846,1.3318291032281762,0.018592879247336408,-1.8628554183574237,1.8645921407505894,0.036366566453865615,-0.046834000971899152,-1.1563838786594669,0.068521214809276115,-1.4213617827538889,0.94332075253529946,1.128834561745035,-1.2480043061166235,-0.004162372163970772,0.36542707065314117,-0.0076249657262571838,-0.084655932764449812,1.3870517807849754,0.76202618029313929,-1.7322280056210528,0.13540651000878851,-0.27990234796383473,-0.49817564784634139,0.11611300875376174,-1.0309212780658401,0.60305291191900312,-0.5202152355267351,-0.0036883998614020311,0.13678613056301689,0.40191399263016747,-1.4070576577673006,1.003456898554778,-0.8379733200270354,-1.6821331041336567,-0.15449766718110938,0.64390305488930399,-1.5710330583317638,1.1064785824663841,0.78879152011538722,2.0627316226009476,-0.47081640452110252,-0.87001903251338841,1.3308299912103476,-0.14690224967582932,-0.20675485023746459,0.67815063668205711,0.83004343410075476,0.85742036568418145,-1.2892310375655025,-0.42756418378285255,-0.18748834561307345,-1.4726096488731,2.5176481859968844,-0.81365924464521955,-0.63055808664217528,0.86024221160381309,-1.6770966795182081,1.1981841874979611,-0.26760139183854487,0.089131853002435507,1.7210722421408331,0.19047849272777703,-0.92841251594955865,-1.1007558785957354,0.87513103024526284,1.412966400092617,1.2089775391221502,-1.0657709823892672,-1.0737131216028397,1.3874553061229946,1.5355326631560444,0.65937672935779634,-0.16869763864527779,-0.80505977287593844,-1.321465907069002,-1.2820369675193011,1.0498965080194482,0.037504396977893595,-0.091570242341641378,-1.0102945482231678,-0.73191415621780553,-0.16504848288134774,0.3896104160081717,1.9871174951852626,-0.41131398457092144,-0.29072361137124597,-0.22263258552249032,0.64798419730228707,0.01089887113556888,0.93274807093567413,0.43722688165623796,0.0023619100975495687,-0.25157877311574978,-0.75816832755179109,-0.13133688624862827,2.7049523619964688,-0.9330726534822007,-0.63500026833442658,0.10050487655979388,-0.41634472785053173,-1.6769106978073922,-0.88589723716847701,0.05545689644890154,0.23825998359263498,0.23574401311512141,-0.777280331846815,-0.70403661740564927,0.88700838709902263,-1.118854175511917,1.4318161658770912,-0.42347108509880577,0.0028392674574572816,-1.0202346278949843,-1.8055207719304702,-0.65914032846228965,0.64886500730045693,0.40392158466509137,-0.98612171993050313,-0.94692937233017338,0.30616563028628757,0.0097379782189086078,-1.7845952247482786,-1.5242325241195849,-1.2053685377471555,0.065564973257621714,0.70919845105686197,-0.60067539438773154,-1.5557977362975282,-1.2906481916466421,0.81083628775399685,-0.17324130872761467,-0.13437169408248872,0.1187810041724436,-0.7784885816481204,0.58143852280589148,-1.1267119361905034,1.0199870275444516,-0.47722139550343357,0.57533437741556526,-0.084868686609505847,1.5582066927052718,-1.3148663939898981,-0.39799465386559107,0.72610957417947863,-1.4276696001934961,0.87880633310958045,1.9559446446231774,0.064352985007863281,-1.0705176018730285,-0.68601687401443778,0.24026198664267764,0.38741462461864162,-1.3583552881480241,0.2623465511701244,0.18190954002814186,0.21192012512807523,-0.45208416565883047,-0.20856502228795679,0.16241975177218085,0.97743715020620792,0.15122698791483216,-0.39497546813275008,0.91265104081847082,-0.086784068070089274,0.28377448445978753,-0.5181047637701548,1.9177248101723476,-0.72406764697309611,-0.52905570853670181,0.93502517714206157,-0.82450163372423313,-1.1165809005649212,-0.15251911363530216,-1.249598010372565,-0.40056772856437933,-0.71439669219650792,-2.413992579789797,1.4641865050017853,-0.48362267802153103,0.091292141302659835,0.94462939109915245,0.12422250757626548,-1.3080418244798813,-0.60628107912980089,0.092335658982500415,0.30201394703921852,-0.97453608594593211,-0.48380532032049178,1.5286403021087009,1.619631845838376,-1.3506380902364743,-0.042069167931916694,0.022402643654475137,0.68340235491868906,-0.43686641231258405,1.391091035725732,-0.15174903606159132,-1.0390890811514228,-0.99001672240104899,1.136413945831992,-0.86528980189150395,-0.15527121978026689,0.97346599137004963,0.20506487092762635,1.8293473912999085,1.4031574133244269,0.92978358169721631,0.74067397626250564,1.9587672169971646,0.29405514910410147,0.73429392699720952,-1.9794797998779703,-1.8300898939975432,0.40621963420756885,0.33632644289347668,-0.16984854765002544,0.47347578904268472,0.98680895763306853,-1.3210354321400004,0.25226291735974299,0.32808789748643513,0.23671530694459061,-2.3158976936334943,0.15720932269820262,0.98794796188875911,-0.15212012729540969,-1.1104156165077708,-1.2421566503051349,-1.3023035056524932,-0.79715168220263144,-1.5928034299496765,0.4593549377239487,0.62338831634215586,0.92382759064240738,2.4698880577980016,1.10201892109499,-1.1369494997721137,0.61378448680885,-1.3490203432345644,-0.13946699662231066,-0.6918448533789312,0.70620720409733295,2.1246419845422295,-0.41193222417597214,-0.55425602995296763,-0.47057299891111976,-0.5076065939393517,-1.9340434250238188,0.49983784379824292,0.055123484654933101,0.83003166075260193,-0.51853549349552153,-0.27570274444998094,0.75973642446983014,1.3806452020569548,-0.49069090372626156,-0.13395785480158684,-0.11353464338417101,-0.22145706493684617,-0.22900715984684719,0.29866251803143889,-1.5455602155245796,0.40623831290548562,0.97314775669402387,0.25763637229387182,0.37291065301538745,0.63051284493241644,-1.2949971618357294,0.98298498871661988,-0.27738289200607996,-2.1108221860153047,-0.4184225017012716,-0.52493807455541774,-0.24297015929181548,0.10792631452599594,-1.3480254149652726,-1.6954933202267979,-0.49365010392399078,-1.2982061917413419,0.94827610522983652,0.75125675619352439,-0.74068985663261,-1.0999766625203469,0.0091042075595089266,-0.53280438124822793,0.46321542064240423,-0.65683357994922253,0.77799681096057727,-1.3633092817898791,-1.4913736935319841,0.14536254789758835,2.2509743115738829,1.4794532353075716,0.86239973199219766,-0.89558135137642081,-0.44875297979516382,-0.11639506535373582,2.1132633837978809,-0.10340665802293683,0.34980304418573183,-0.84695519133098474,-0.097073790712598654,0.47596326354514962,-0.82835743616933732,-0.66272554150052265,1.6201551506030283,-1.9916515759935451,0.46031234329717535,-0.33056986599273086,-1.3798949545724859,0.98424941543413413,-0.24690517644639082,1.727742214223229,-1.2090676218686689,0.40230573845136275,-1.458913399017006,-0.031061036571021501,-0.99880312019921047,-0.24089315828746585,0.44459854060834614,1.4386274316068102,0.64421512440643691,1.1831796773629986,-0.82709233306466323,-0.11314234140048703,-0.066581854075072083,0.11672615042867912,-0.28849205211405093,0.51320491791024681,-0.60085207326152978,-1.3312051502479751,0.55596732561261342,-0.06913516943792973,0.86591691868123943,-1.1918474410352264,-1.4726089230941153,0.72231346149935349,0.0062893085623675444,-0.072712389098991984,1.0095191274491,0.62582821306477399,-0.2284217483590272,0.14566547823619477,-0.45772231651822909,-0.67065620381145008,0.54988137317977603,-0.023976339412798205,-1.3872321139324084,-1.0831481158436496,-0.56724164204495642,0.085504788602644072,1.0241932332939012,0.89827030384042028,-0.080579468462527934,0.50589787830011756,-1.388414155359033,0.42043291478333633,0.47585606432274097,0.041732709458884541,-2.0188224345771251,-0.088083638920863266,1.5096486286548316,-0.5380123220246309,0.0093665263260056895,-2.2046191162221569,-0.47872156968178381,-1.1690374708411395,1.0290033634624367,0.15785070773086926,1.0220379829244666,-0.43081288666694317,0.70294792229279079,0.51241357253009712,-0.81672992000196187,1.2834620754490138,-1.8476287028514837,1.0709134922920012,-0.35398229492446642,0.54274707658403532,0.87950125808832036,0.14958208754512417,0.88531460501513881,1.0093566078099885,-1.202083931410582,-0.74824230959563409,-0.12988711945139361,-1.7215728963257171,0.29571001527295709,0.70793675760016817,0.87257649637106593,0.1979816483877509,-1.162039683947012,0.50839119227569918,-1.6638773930639676,-1.1412181881157879,-0.90499516697900306,1.0388202375337632,-0.86217661102431931,2.3437171350114832,0.19951015742038936,-1.394869310663402,-1.0480777850327383,0.38362445980919879,0.91512071807882878,0.44446126760616855,-0.7368254412752181,0.4218691920340869,-1.5310896472214228,0.43329170846561765,-0.3138269059163229,-0.43100746322783445,1.1791709803869426,-1.226637876181192,1.9505460251901527,-0.50602516136409936,-0.53640941341443615,0.3681234522278713,-0.60686076795527255,-0.85123506685784167,0.41008803452142545,1.2191877421052899,-2.3297860716850805,0.99461502558441028,-1.0955044237084466,1.6898394494984286,-1.5938904934585816,-2.8313593321974753,1.7278274600458181,0.62571574418579134,0.44021269552727632,-0.82138701032238826,0.2212886773247788,-1.1169160605734534,0.49283902866490875,0.061592705152341928,-0.30738250280081442,-0.79512928636778546,0.062998934692258937,0.0015507244060361091,0.77340047051744842,-1.2001512437967252,-0.045529749649440454,0.32537145031969206,0.43305240517007815,0.67876795533656131,-1.1228910563527807,0.084710752015015281,0.028900125440430937,0.49457088513944852,-0.66827525234045471,0.65043695137586621,-0.74537004313086852,0.97827327133545838,-1.103215189453838,-1.0840748424233906,1.5771765736744361,1.5918040314761297,1.1522130473098369,0.16469358520774016,-1.8319120449165522,-0.58328993510265248,-0.77329858061247003,0.11859692961193195,0.44863262299103079,1.6679092861541771,0.60001824282369043,0.71398172452872322,1.9961123716875755,0.76744236738151661,0.24387853258360062,0.33451063515782375
-1.2957049693470517,-1.9622281689370138,-0.20048080370777005,-2.2087140976014967,0.8079674280712773,0.70152146470302557,1.9637871034785077,1.535288224144002,-0.64489926297139166,-1.1053407920359519,0.974787390398411,0.76756817254359389,-1.0599756693226206,0.1087221129678131,-0.46224515221913737,0.35819795350808203,1.318023547160148,-0.012778265480111115,-0.38304925994463651,0.5935983518895277,0.27091260548856078,1.5803789046661829,1.5434183768510403,-1.4773304261881464,-0.035597744855430859,1.0410043951096717,-0.50626055783268264,0.00026108175831525226,0.31021241208879602,0.28110482504827827,1.5490641765430855,-0.22680542073916357,-0.11687542215754818,-0.057682595285894943,0.22451583762655042,-0.37059763949463864,1.2052216763230106,-0.87649817323948465,-1.1354636901378159,0.42844420618921519,0.23207053460934501,0.57029960857337214,-1.8358377173813076,-1.1809573490611296,-0.7121064557809258,-1.6426199540671049,0.59654516847368433,0.071135721523227433,1.4426537872392702,-0.31718391034311993,-2.4459380319643071,1.3501316464299,1.9333739863817483,-0.99855338952390005,-0.14430498607708103,0.75379627927478754,-0.91282757330627362,-0.99750602426473356,-1.4027418758019583,0.20849431310991526,0.8503309601470721,2.081011983371988,1.0169031357479079,0.17357149286682605,-0.44271600937492334,1.0651298004651264,-0.065124442525505005,-0.014925260854934012,-0.89673459382949028,0.89920748376348847,0.40017896235994155,-0.41176438296048878,-0.47875136029713833,2.465853944832634,-1.4665393304671417,0.25246114917085621,-0.1395352970232584,-0.11649032043257004,1.5406574860959781,1.1234381356146603,-1.746886228248703,-0.98930442924489226,0.56632838338429858,0.16836449978062543,-0.88878463756806092,2.3265501076933903,0.92424963669221571,-1.1433293155441833,0.34313000510552988,0.91343679336435613,1.8341220566471061,-1.1125434563700303,0.51464323789915811,1.4195962536657543,0.3412628896042485,0.74293604279820147,0.54821549380705237,0.043385603457448588,0.80026847726919292,0.30016911430237442,0.31283588954088676,0.37183892880005848,0.35066402796741192,1.660055313730298,2.1481937792260122,1.2802641241527024,2.3664906932294314,-0.96752692404485408,-0.26276956794892448,-1.8405161543955921,-0.80867517189865445,1.2179065230971717,1.9559243889930613,1.5975999761565003,-1.4066753091695048,-1.6663238747614137,-0.90948599288605736,0.6002729667104354,0.2730460455576848,-0.41406373176767619,-0.13158906879517912,-0.35010073690228322,-0.94195063625177011,-0.94503110317433636,-1.7953024428372608,-0.54989584501115907,-0.72827648496484654,-0.28782616938908029,-0.20104462143877863,0.065985684931828256,0.26727273344371322,0.7976007463612329,0.66752051363339493,-0.87475047578997167,-0.75861206297855122,-0.59768648061547403,0.18639531706066231,-0.14920086611150518,1.2127554737127224,-0.58840735993738214,1.1871728810477178,0.10736114590953036,-0.7287380563013115,1.129763912747056,1.0066863482658064,-0.37437184621119546,-0.77999105981747241,1.9122669917870607,-0.32842216856067036,-1.2734428106163702,1.9895793265641244,1.2641230847077123,-1.0090261137790295,-1.1239930482800142,-2.0027432571341781,-0.0096409737493472949,0.97026045294258001,-0.8296298426393155,0.056579289860900113,0.61210489920327449,0.37883800937328227,-1.5890595595280008,-1.7368163925194318,0.37722443748152912,-1.0594684929383447,-0.25943736143230134,-0.0027757149388916965,-0.15578705301332577,0.16217217329589445,0.52542962228615697,0.070887843948291882,0.64312306341830539,0.43736593947803526,-0.15712209734042704,2.0709155558967756,-0.26558923025754039,-0.26022168072383189,0.55796155359617172,0.21528149155121096,-0.3743833972621059,-0.6118135094105942,-0.86174186259615548,-0.045395940110002163,-0.15325268106763054,-1.3542337427097386,-1.6715207015893099,0.33965123135317216,0.48311692469632428,-1.3466316133584064,0.18627543061579113,1.0439126356855248,-0.67425563151022494,-1.0671046534546946,-0.97924780460204353,-0.10221818002191545,1.5607606729108303,-0.54369285547643342,0.15730147056882263,-1.0229794564867913,0.079442706425625301,1.2904932286971991,0.10242206345946073,0.52540649986426013,3.2118709722731693,0.31498918767892958,-1.7541730131118893,1.4230371609462344,0.19299427290950785,0.96629813842817414,0.31934496975983678,-0.09430856626116696,1.8621265613828548,3.3293871833497182,-0.059236202492939413,-1.0175465863401298,0.73197622002050555,0.85081483749279851,-0.60029190166849444,0.48220828413520139,-0.28170432078855345,0.59809183383622133,0.17511297746030374,1.4358873148940363,0.2937984311425646,0.70987176338192803,-1.1503400503258461,-0.75928916237091293,0.54405184618244506,-0.36453060384857,-0.57224744523871351,-0.38915886960509799,-1.1189279202805773,-1.7736777609490799,0.079781266450795751,-0.96105982952303515,-0.95843436969581464,-1.6852477510599948,-0.53511340964642606,-0.069078173890304032,0.072033542754137703,-1.773601209557927,0.6593937848467476,0.053664216830097637,-0.37173574233888057,-0.39586605755315135,0.45844364401023974,0.23418195106620346,-0.70258692034079573,1.2407447831400182,-1.7152047827705448,0.298125397287688,-0.15612025431082463,-0.020257930950216323,1.1106247183430498,-0.46797767470928675,1.4782792887695935,-0.71348015332734338,-0.94237729457608743,0.14328361047325669,0.1786586664731237,-1.1930925180917435,0.39702784977413674,-1.031517615063289,0.14840543607329135,1.6867387297130751,-1.0305051965389858,-0.47879713110413918,0.76780503954805535,-0.87657960782975675,0.1853292405230747,-3.2201487816809808,1.6717036414363966,-1.3277119287410486,-1.4804763914463981,2.4351855265268818,-1.1725144085232428,1.922905960392649,0.046201413546746818,1.2613222972309466,0.5494821487420416,1.2571491972755988,-0.79715986917606829,0.63344877024141222,-1.2770723360867418,-0.35077727330507119,-0.39046621206683901,0.0064485352549600279,0.50721229481792007,1.1668649121262138,0.60057334610123891,-2.001903468777456,-0.584991091989428,-0.21251904618083411,1.7062357684033216,-1.4823209487997531,0.58690652132342647,2.0813412880903148,0.51109660609566854,-0.69659617849260091,0.58604062353056596,1.4884461787606031,-0.75590718923258493,-0.21807253242939736,-0.27208155426225433,1.0984756212374203,-0.90937509023385499,-0.79189206685476221,2.2773084546596913,0.32899749225883096,0.71955648270875106,-0.063000233342554654,0.95214053759813821,0.77342073886782114,0.16207068644955516,0.99797992092680143,1.0887293871541439,0.14567606993430451,0.08680885808185472,-1.4632281354596994,0.19454714780968077,-0.34689590846291557,-1.4184753309089804,0.1978990540042147,-1.4453723257383555,1.7325482335076958,-0.98691049485529814,-0.88769723162094005,-0.0037909563081811523,-0.063984542403442285,-1.016860706364078,0.016260077186535778,0.76178495775968225,-2.1988254846863002,1.8123982224283945,-1.2597848731720946,-0.5027549532255422,-0.96536521677127418,0.29835793805909588,1.7002347456484277,-1.879028013749948,0.6805575171453887,-1.3998423087643321,-3.0400362532137013,-1.9715534107809334,-0.59246277625274191,0.16119129730648851,0.46990125010800549,0.97766417774563097,0.63505690437665285,-1.2596598850165657,1.5963233735891729,2.9867685849615855,-0.87796423929728729,0.6356599145022932,0.66931843605770758,0.096022933595632354,0.0062948687466154304,0.77112636672914336,-0.53103041626845682,-0.3370618693612602,-0.74998861322548482,-0.82679310365209824,0.15428498348150116,-1.1609595254043166,0.34687639577428014,1.7008189880314872,0.70935189190947401,-0.0032610220091061869,-0.22387035729641305,0.2374596760588876,-1.1751029019409684,-0.68736476828754967,-0.91561677431123423,0.51218999555598488,-0.9780391600962367,-0.26585594807567048,-0.92899367903781849,0.1858823284514845,-0.46723727239118534,1.2788606529209063,-0.60817131042518846,0.7433431813757555,-0.9367567539978352,1.3795485623046637,2.3937298599151275,1.2677864029844936,-0.36866628078835956,1.422334447461624,0.62626655141840604,-0.72723717856554482,-1.549875211948982,1.0800706444587815,0.36284723488136894,-0.62564745381292219,0.075677290190752852,-1.0883775076374294,0.37379790873588709,0.78883975845630505,-0.77425985048066293,2.2237360099637846,-0.069254066672263151,0.35532260849502934,-0.78989257238039634,0.35059656164733877,0.20128194777193487,-0.35738360961978383,1.5804042829076559,-1.5139228378278953,1.1355674988138389,1.2199638169388225,1.9972725886833673,-0.58889271473327354,-0.72809885256607165,-0.55134553009684706,-1.3598329056185861,0.27432309743451444,-1.5403082860811845,0.3608584225346162,-0.23208896370570625,-0.91002844474849198,1.6504216053594754,-0.72149778622530503,0.57199749319630533,-1.5653402024523102,0.1198752921080654,0.88599018372732607,-1.9248025281089371,-0.61495946428134485,1.587890309164703,-2.7504132991789332,-1.0961114136460184,-0.2734009454320066,2.0087655740881969,0.67619039035229667,-1.7124915657951514,1.0687173117693707,-0.28410342028249458,0.76116274177842291,-0.73803555918593167,-0.23578614837480649,0.4844781029432928,-1.4564518236504416,-0.78424544370186555,0.29658848440897156,-0.89426084366815606,-0.59674062485056922,-0.35227011429178151,0.965802163784095,-0.89771630368148048,1.1241651591199553,-1.8424162207567649,2.4207200972067509,0.46937545603068581,-0.41854007548879735,0.58771025948173183,0.74922144971442173,-2.2381134912411276,0.024380380052952726,-0.010639163732912111,-0.35805293319499049,0.59292206642234113,0.14981729334610036,0.6893963064860793,-1.7428214502951014,-0.13168093352988888,-2.0841081271441015,0.73957317639814946,-0.26140308041779498,1.2725340265366023,-0.61946137646027766,0.40454208349686654,-1.7069756600560351,0.49701685665831707,0.63672329978333875,-1.9938828472585599,-0.69404016576846106,1.0173535442846295,1.4595206761575543,0.0068499268577509043,0.33133482744825288,0.82332277439720269,1.4202720038557368,-0.774309995243319,1.1155700234283212,0.38185692627823314,0.23606271705883933,0.1596130821820422,-1.2469414926244655,1.6987773189577235,-1.1259204896509432,0.81753381708738015,0.90955177722304048,-0.7513552487714229,0.56322448756407295,0.52068425018505748,-0.61537938040938056,0.11889399553965091,-0.86295303478141105,1.7411312126053888,-0.2709034562801006
-0.41924455450393183,-0.32066164025932897,-0.052263572486878261,1.2080400184341624,-0.19756448443470678,-1.362843048044863,-0.12876999757579247,-0.033544615947295978,-0.55469271337914428,0.83716504024179494,-1.1528209835640426,-0.62340376243409978,-0.68286783543099872,0.81799296580356196,0.16444741212471817,-0.45826397928855006,-0.44736182328147428,-1.1092289148138237,0.79217421070555472,-0.043943938026744393,-0.92923112150520226,0.86816612926162917,-0.40218396731866801,-0.61351855754538731,-0.31933326485571045,2.1981705729013967,-0.80742112711465552,0.092326307200903096,0.58729198394109372,0.35843472543175953,-0.98879130984282393,0.66438604474679053,-0.72645287938201053,-0.78958869340346449,-2.7889383861157331,0.4623973448869983,-0.52706590677513887,1.1048020346663454,0.17895496246363032,2.6620031098074959,-0.096352295857407372,-1.5705117378269151,-1.1195104133970009,-1.1973634692557515,0.04116644616187861,0.84598413739560985,0.16839702547598656,1.305429910471319,0.33744783426276442,0.59233215063665778,-1.0316907643496216,0.28582453336815838,0.056639487090238416,1.2860839694549722,-0.048822904058999063,0.4089618371724591,-0.31245692389387025,0.73493123511699976,0.82817810098278899,0.081900918207359716,-0.20683606965653609,-0.46001840962939278,-0.29414548605930174,0.31295197308297612,-0.02808742532935396,-0.38234437235322799,0.79522187994865012,0.68526868943436603,1.633316240548383,1.4951474667266607,-0.58315519749174027,-0.27249509518021042,0.86960820314100906,0.91753536947407466,0.19686427066955967,-1.1492614328903901,-0.15492690634406628,1.4578446728330239,0.28152953204743963,0.48063352913778129,-0.060197021484303878,-0.36399037190109734,0.062849694878198484,-2.4909440624734618,0.26415284291580421,1.8033377230669843,0.04584999748922846,-0.045277439589314919,2.0334126831123629,0.0030737848487203115,1.0618416077184738,-0.31473827524985104,0.596766504540164,-0.86876881830697361,-1.4327938511642659,-0.045557833942314337,-0.95457352050808963,1.6714780485043137,0.5335639797312004,-1.0562447113081659,-2.7021897470526266,0.13950554548365843,1.7771995832793639,-0.89053082271491357,-0.0062351142756659509,0.46399841528130348,-0.49785017821977867,-1.0266228167769793,1.4211097121565552,1.0715964952773462,0.0023248373945339447,0.31001964852965697,-0.29004181488239655,-0.39253257530848479,3.1714516635719598,0.14717370453094245,-0.71164004457148511,0.19743484706832354,-1.2660296929681296,0.25991895007511712,0.15796450656504485,-0.052580984209441399,-0.85532265697913468,-0.83183934989905772,0.91395568037589947,0.95054651369153509,-0.14450824025630107,0.4464276516611938,1.7835564316782209,-1.1006131522749381,-0.11522451777580937,2.2408660846283004,0.40489632906782175,0.55936747750161875,0.27319045152942445,1.4872162272068052,0.07980470689322626,1.5783274569142749,0.5792665414722481,0.14354523090599608,0.31013357854868323,0.57717980638307775,0.0053501981956709608,-0.2172594629685568,1.239715772304248,0.71157087266912078,0.74803577223043327,1.2307146208814015,1.2320266404456415,0.048669088914855607,-0.18837755277604901,-0.53862851892584462,-0.476520591165353,-1.6205482765693235,0.049028198766617022,-0.9771061124027286,-0.14549465279346482,-0.43733539140996169,-0.27309793002335248,0.79544548303092044,-0.72959355045280472,0.37583278443580109,-0.20600877599695858,1.6480541737363341,-1.7154391717487334,1.2456323614200777,-0.68361913287855802,-1.0368763598166071,-0.62365138657358621,-0.12584408479168141,-1.8668476479623732,-0.23190769044065593,0.76038753853141228,-0.33918986509724319,0.55733797462955115,-0.7596978394599756,2.087377322456569,-2.3041792379415718,1.0780074766649737,1.6446996311789996,-1.0946209412101067,0.54892612588727208,-0.37023606892359018,-0.35149261392620024,-1.0781678758191302,-1.3691440072209944,0.086457689728978507,2.6966662606696463,0.66612913529347817,1.1408810661936044,1.372660461963721,0.97958460077509801,-1.5534747620912062,-0.092192522629982426,-0.26081555006966406,-0.30351354819979681,-0.61185723276723325,-0.72748243344461183,0.47631232432207937,0.36814577340550259,1.9800678260772793,-0.25566739498844882,0.035264550267925118,0.92984581725212156,-0.70197687054248603,-1.326865323116845,-0.15757346665068911,-0.81599901300025612,0.9335626267352497,1.0189420247730121,-0.74131265338867358,-1.2814813401732008,-2.3466229501281175,-1.8565007830449827,-1.5507877994566381,-1.4209295951905707,-1.0171523599720365,-0.16093786692427323,0.61697582046367738,-0.7000895409531388,1.4195499889490779,-0.37935659027328106,1.0474399552309623,-1.4518531498627554,-0.73216334119692261,-1.827439351825406,0.50909525266146849,0.90192677223428086,0.82077161953939859,0.12422310749492252,0.28195269981357463,-0.28010739985757499,0.024052863600808272,-0.0087758085127908492,0.39089955832091422,0.73701902098235117,0.69963296909193107,-0.15304406930334613,-1.3327527246946576,0.84481354241833162,0.4534343150717125,0.17460247789758576,1.0220016210380032,0.090928414495458035,-0.60444659052169791,-2.2019314081510895,0.71539653119505831,1.4643288801888088,0.88246703032199236,0.9672304635830189,0.47948314751215915,0.31248437766821108,1.620948030297779,0.68320535239576308,0.51613769793226139,3.2864949602297364,1.7182445243269582,0.72130553240141615,0.85303099280004446,-0.5365183643248066,1.5402603857036845,-0.26800625991846527,0.78756782438069428,-1.0488406741418419,-1.6209851676503984,1.1619723685013366,0.46087664063007094,0.06253274332819439,0.85800733230074044,-0.39564498502384354,-1.5908291787654925,-2.2050960764242769,0.47589143441863813,-2.1279024010083569,-1.7730291306395263,-0.43980126000291109,-0.80055253160771156,0.44702792648282713,0.37212979879129165,-0.028410175131303846,-1.213954154957037,2.9606617690375399,-0.771115677104243,-1.6326376181562072,0.023354143629579081,-1.4371685200374746,-0.73590031501133735,0.1414979196735168,-0.64326458017889476,-1.9406395969231041,1.0575252061194709,0.68422385900425509,-0.55843705814563915,-0.074148697765054575,-0.71387507594280952,-0.71986881425400751,-0.15749077597082078,-0.19976281823869743,0.55869193727884447,0.18703679872404086,-0.76903801887595191,0.18804182335168895,1.7179170862881687,1.339838554382689,-0.047083621108990899,1.0468302313203828,-0.21256640056971399,1.0248546021370311,-1.22220529321557,0.70463808907686876,0.91942543309098868,0.22322497736115232,1.5601215636413692,1.0165193354262674,1.086538110882393,-0.14376470916667447,0.56440128181919658,1.3404145300873676,0.20471949827944277,-1.0284089045457967,-2.0126721086756594,-0.93859610566303153,0.78637196426117228,0.42454426401551931,0.20373349257623802,1.0382172684871533,0.18018379519194921,0.3141609895753904,0.27107607666670352,1.6816138438905568,0.65609000943268936,-1.1860444423717953,-0.021208509347167833,-0.16320888544227427,0.093994164221834001,-0.415108439951825,-0.25569470599881422,0.3163106285568425,-0.26703212504092999,-0.10091329946918594,-1.0124588512724402,-0.71976155498996952,1.0087610565462695,-1.1174496249261774,1.492309194348808,0.74977538527393517,0.25063446492221575,1.7416959675478878,-0.69372469872959652,0.10128993322560625,0.85968750453180209,0.35696987455310714,0.42460986998773415,0.60019591504708347,0.33208611496999701,0.069823281560269623,-0.68879221220168774,0.1954781713875744,1.1672791943397534,0.3614111246925274,1.6997961699441917,-0.23091823157316146,1.2565344001473973,0.19552194321160202,1.2616101943156135,0.61236821696950183,0.58861357415778159,-0.27717414481456021,0.6536563806642437,0.52323240260664694,1.5272773501022172,1.6589217017129028,-0.33053934029712184,0.78827707954122461,-2.2635717649619105,1.0703213174413355,0.58509064680584333,-0.63022052301189724,0.77038826010977335,0.72015774544903788,1.9477807937547806,-1.0407710173458089,1.5099221812917167,-0.15429706112396516,-0.93002421914058686,-0.45096939969024563,-0.73110351703289722,1.9079602181756259,2.198962856522769,-1.1519145516524312,0.54371650986649489,0.55223664650360993,1.2289046887088189,1.0776324115286873,0.48541896406118934,-0.49304069626475938,-0.37266726549736578,-0.72794616894138453,0.35635997660672408,0.099016694360795895,-1.1373218114237928,0.0198213973753773,1.1965373409062467,-0.56378960290292002,-0.80563584346445316,-0.90727635999778689,0.25887854147612388,-1.804592754697522,1.4716169185286139,-0.0017702616241281337,1.2753292522303137,-0.4104755757111983,-0.96866643871058011,-1.1374909337083505,0.41172869687062047,0.45967452236529865,-0.10723695095353654,0.64672888761994574,-0.20515627955927349,-0.23242018158490918,-0.51279220816885296,0.090527615791362467,0.80256305202600542,-0.029898109324951811,-0.95021408029423726,0.3140074849561475,-0.20279424335790569,0.6654452924291453,0.25356624052161203,-0.67347972735965445,0.53458374324998825,-1.2370463376050493,-0.67549965641947818,-1.1423031828295156,0.16790330470061351,0.46849085524118356,-0.19345180321143632,0.70019615885469821,-0.30941840249529989,-1.2063854653927324,-0.42772943543784597,0.31285062205892022,-0.49859128602596492,0.72090453193564008,0.10400361886265437,0.21128370678397504,-0.71373189004173043,0.27505465598497569,0.6258493099457062,-1.4451499207492171,1.3272182618434505,-0.24951220927924067,-0.6241120865411568,-1.5103862209693324,0.31357354662538239,-1.1805010120316597,0.076241792235249656,-2.0915820819288049,0.23506918148102957,2.8619089952664356,-1.2583543141538474,-1.5308624572185536,-0.70919217335737506,0.65670964558133749,0.6534915418878503,-1.6515840775694342,0.65192216683011517,-0.017760726261427561,-0.50549801609316869,-0.10921608702950647,0.86580169355414882,0.94106604921449466,0.35022603443755229,1.340795009520205,-1.7475541227789857,-0.20958123886984081,2.1440685966943693,-0.34774027098949228,-0.44720994678339454,-0.43136796954366718,1.2686935446491669,0.46221120307988489,0.28016246938142642,-0.25520421029143731,-2.5561441059147882,-1.089931238665351,2.5775185645067968,0.39003868530920421,-0.72933017531490518,-0.94148287316391333,0.17331628150227649,1.7654998887372384,0.80433634982560143,-0.5290088126741479,-0.60377893594230392,-0.88387905067439576,-0.80554083771937401,0.86152094826542291,-1.1628558576172314,1.4152900506066539
-1.766035982855283,1.5138484611941689,-2.619557723585284,-0.49766824062740411,0.12498155258490712,-0.21372134466645584,0.14326401908972541,-0.47722321889579961,0.3443875022616073,-1.0170175899052973,-1.078330066123401,-0.26487365686706199,-1.172693716368777,-0.044951323243081161,1.3930265282180223,-0.020203288096545684,-0.14621723364219683,-0.68210962767698913,1.1777674117352896,-0.70529220668432169,0.66806713643814408,1.0353029493682868,0.49530234458482836,2.3148618340079619,1.6766398032614289,0.3838645212388922,0.41922730487446863,0.45451662755281586,0.62071011240078566,1.7359972768515288,-0.78635095802716315,-1.3767809318290609,1.5402844854776649,-0.029876857026779651,-1.318072707660819,0.31646482481665966,2.637775820032092,1.0904550292137869,-0.63921604642621166,0.64024072143192856,-0.029968810336168782,0.30582044000288772,-0.87347715342695476,2.2169796426745716,-0.19844506674502721,0.37776748002636296,-0.49875113926974091,0.25922780123095207,0.11992602129184834,-0.45501412574739297,-0.32303350058354802,-0.85383257855935923,-1.9464608983221587,-0.0090079572177440403,-0.84117808289058915,-0.98948084123882196,-0.88981456695265104,-0.92063994178813469,-0.077257864524218511,0.95820235818968391,-1.3389013705105874,-0.51599623004595629,-0.26073400465156482,-0.0086109697369777128,-0.61427742675438879,1.3810241476462222,0.35937841838502377,-0.52316860764340645,0.18322286287913561,-0.81053778846376212,-0.74635914272459569,1.0276456098093305,1.6708268311514516,-0.32789126926781853,-0.043861960824649437,1.2307041044818205,0.49567574239057255,-0.29374562469360127,0.64290894087454109,1.5674320769420893,0.49955534363234694,-1.0123034932831394,-0.36070461369744244,-0.11088904367985782,0.85852569205506934,-1.3194214907359147,0.66094110115100291,0.19100368220779582,-0.5370912804039838,-1.3438788661125625,0.20308945977782589,0.74862370472364181,1.813709533484815,-0.11819682285819537,0.20905579445262865,0.078219089520030718,1.3546712882359127,0.54787798020453682,0.1484462336505511,0.4094612643965177,-0.7230019213949781,0.18389634601861721,-1.0266397848719997,-0.13471545547226244,0.63321834290664636,0.91486699496764845,1.1984855823896654,-0.6504146068260549,-0.89597105553949452,-0.028789036577437758,0.77792310404988685,-0.44855242452723892,0.73455332398273698,-2.1792062991564167,1.1554100857363137,0.35189399335781346,-1.8935012854083149,0.47502974618512317,-2.2642953837799835,-0.54707876140872602,-1.7336280847717256,-2.6570294495505862,0.90419832420881807,-0.50528168196232937,-0.21571778830540736,0.3622913146853648,-1.5864362700673125,0.40707890955099763,-0.77025816270070346,0.68026150898241344,0.018958076048468261,-0.31251567665751206,0.73296026328169672,0.1995284656570554,0.068149727409131444,-0.76766617281404581,1.7978003119630395,-0.86127975350300245,0.40490782574335671,-2.1312951606282597,-1.5051131967775304,-0.1697584218844744,-0.27830731643820578,0.30468387056792257,-0.99489423509311137,2.5393926916514213,0.93638580868967347,0.67028075796856124,-0.43784322716835167,1.5489857196497596,-0.035648718001324547,0.83688830506325762,0.058294921441518051,-1.8659603723949514,3.1504188589526461,-1.4752476012128077,-0.67796475459104011,-1.3000439864314377,0.089647283456953261,-0.39486077332571567,-0.4979588159422868,1.0251811338309389,-0.77086116459487863,1.4881943498470986,0.81466482235114401,-0.22025390916583001,-0.8709901163182856,0.55666441428031199,-0.23028902879888916,0.65725428468482561,-0.64174981737909975,1.2396156941630325,0.27606376419850687,1.2201666437402943,0.50031197243412062,0.035442730762134729,-0.36877719763023747,1.0954719470339098,-1.2402673602336949,-0.67610577935637284,-0.059295395742309492,-0.67184193511441082,-0.60105073153913546,-1.9654165278161682,-0.940231781781388,1.7471358936892916,-1.8469838152836771,1.3922753968036976,-0.15037812243881429,-0.16036191230578573,-0.36709462338568027,-2.4902968576082598,-2.0118675462349009,0.3579229269847215,0.59675301571584594,-0.80299204621078935,-0.25616945534308139,0.28031361552488165,-1.0691197519800997,0.18446777717751278,0.8940720707362676,1.289264231146467,-1.3838711270932771,0.099037408216619077,1.1521303757445767,1.7962517640197926,1.6508976923200598,0.64797219450876498,0.0065938305750566049,0.4192194179845391,-0.37051736317585227,-0.18924916284649271,-0.14664187984186483,0.4061054604730161,-1.1417966752013315,0.052548209109449746,-0.42644795234170046,0.61497145899450834,0.10816597838334219,-1.3279835130385489,0.51741345544496065,0.1157186991336874,-1.2088568462069782,0.14485366553268456,-0.48017257332148228,-0.66706376644536136,-0.11900587339537284,-0.86284389641523129,1.2904253237702457,0.55308675228729254,0.47912671607546958,-1.0349187637734536,0.56823569615456904,-0.71578327597822022,0.70826091785476397,-1.143575289813745,1.3894764373266526,0.55600983378745417,0.71396626875316371,-1.4833145670734615,1.2377349082894529,1.1450232835720549,-1.9659310476122678,0.38785174309464626,0.040641290945822112,-2.1695224675607072,0.25392966503796144,0.83256792958983272,0.1272519782275586,0.55399351720723078,-0.98675324952178589,0.72338014458209066,-1.0657731142666569,0.19209893372106543,0.53432524900006728,2.1529571469274087,-0.41192270282581644,0.12787027006413734,0.59587820795955926,0.15188556920464119,-0.09681670292601248,1.4705065968879616,-0.59110631444792627,-0.93600092232064258,0.55953828448267084,0.97108979860309197,0.27900962280108926,1.2492700898263016,0.99888540823150307,-1.556426091165241,-1.8838143554391742,1.6649960518133411,0.89648916513916777,0.5831181590190494,-0.21190631580976271,1.9440675687155911,0.59143691682570165,-0.3669418108501783,-0.094267189991270164,-1.4136915843041229,0.75144166365167675,-0.79697101769297707,0.4416545191978184,-0.66626075803872209,2.8939368961455414,0.52430350428509209,-0.088977849088366243,-0.89562263968113554,-1.6285083150267301,0.076533742831866008,-0.79181420076374343,-1.4433037313456976,-0.73769729042628485,1.1546497271702143,0.95408686112899566,1.171219367464331,-0.79521085709420469,0.55789660785892015,-0.61328570079910261,0.34410853648094697,-0.58619571249161428,-0.43443041524775045,0.84119428897257253,2.0648359261995051,-0.18735470637429277,-0.51329653542271114,0.8362509619227213,-0.83441585232539717,0.67360700562401898,0.9076600503958443,0.39602683543057976,-0.53529686157926959,0.43776358573765778,1.6329716125582154,0.86328814301309442,2.2320471725749593,0.039039297495357839,0.4095460684653458,0.74180653515132988,-0.6564735563986146,1.8071921756627791,1.5933330601679627,-0.017732398497383031,-1.2683966231814585,-0.47765714133604809,-0.45111904301418171,0.34651291065293494,-0.85841905429129306,-2.2869866791578728,0.79628051361365415,0.95619407848823357,-1.0886363475174916,-0.35318498170967288,0.57594235558028484,1.1233281522165868,-0.33732444525412086,1.2348537940089008,-0.81013844678045077,-1.4230714233556856,0.84220223139295725,-0.62511285581331466,0.4361296596439237,0.074215249416817272,-1.0022502623696454,-1.5849420111814707,-1.4247249596933402,0.015854027783309983,-0.75951688745079415,-1.0261690621657265,0.062921098899576478,0.93415571504204908,0.55559897730375407,0.58251446897910397,0.075903904084677912,0.63826119488988342,0.76468149392011975,-0.9984095512431389,-0.48597069019914441,-0.633142043710335,-0.08952110443701837,1.0857681851941472,0.36428221217623719,-0.2662275233192074,0.30826978011260542,-1.3161656281798504,-0.94186414128145624,0.70126777697938714,1.2586121596957196,1.2138611848631584,2.0804160735971537,-0.68321777418557283,-0.50755507520009435,-1.2706727348150963,-0.018135405999986937,-1.3416575905481245,0.47393619005275694,-0.22302665628055482,0.36266774107612681,1.0279586342751195,-0.54383177903599444,0.20185056299074877,0.62976610737091854,-0.33764689265734116,1.3105664015834224,0.58932061025551585,-0.8536559345662883,0.16236386620346024,-0.25218703002144327,-0.19913777641720978,1.1459831964717515,1.0661352101856809,-0.36011415413956832,1.2501295061474582,1.1159709669039675,0.30285264144936469,0.88548917243126113,-0.21008269966283058,0.51610757751801828,0.63419184421701924,-0.32911376161399925,-0.57734532525728399,0.56569241165902384,1.4623765801539628,-0.7079084108280046,1.8011847137607295,1.5037640986161431,0.13474947493985881,-0.83964651840844096,0.65109790959278269,-0.35769680404546811,1.0533548620901187,-0.038270017591398274,-1.0296608882344898,-1.9016761743162875,-0.85970062401204006,0.26576114424488756,0.8806418797594906,-1.5395557092528167,-1.4426968995684568,0.90835231749500134,-0.24074654071769941,-1.1946100356160172,-0.079191992310082643,0.69836777690547847,-0.67014591846711047,0.92231027836946911,0.31994342612476667,0.74530705122918861,0.30634535242638161,-0.47630485177949511,0.89620772872249854,-1.8937237259709507,0.66552942687323824,-0.8421853792109314,-0.22652826161371761,0.010584571606797898,2.0720447577920273,0.92059487323797207,-0.086019206802154566,-0.0027410787371102922,0.72738973566265752,-0.40846933874810609,-0.28598190778751753,0.72388460783415576,-0.43954589001887395,1.5044169046697502,-0.25375189595534398,-1.0470226258627904,-0.037896391574318532,0.042132417047955409,0.53671018956395977,0.76725114388225801,1.5192742219573148,0.62253963898366416,-1.03707877454488,1.7905578137745006,-1.0162656745141019,1.6265226103622457,-0.97002464213617379,-0.30155997401344581,-0.34656352026369069,1.74428963985648,-0.48859082465062936,-0.32186103242063846,-1.5654655670545945,-1.0229145407657485,-0.58185285067907178,0.75347494018862515,1.0647365335969423,-0.46423276536027919,-0.71527098975305137,1.2720307041052969,-0.5892092865714319,1.8238706908013911,-0.85443519995364114,-0.54440636129896203,0.067292425070037215,1.9226230520907548,0.099961338347660078,0.79916954838372656,0.027572628742945523,1.1767404420549141,-0.25532763978422346,0.4337828624964119,-0.53013003520625035,1.082075314432817,-0.050408283078554696,-2.5139488670469241,0.77364898492742606,-2.0865755207495895,-1.7292933099977463,-0.78117653926416297,0.19606641921231871,1.003044152687548,1.1974611180411689,0.063140628278581273,-0.31951039435277695,-0.10098746921558539,2.8150081455956579,-0.81783054064705529
0.030773046871791009,1.7264077726977261,0.22149248902303248,-1.5248586449353645,1.053179725486324,0.071541914297860484,-0.62187511979231791,-0.45971286334600009,-0.17171436063399897,-0.029943653879599002,1.1287733205455923,-0.054932546648287582,0.58330078411929942,-0.080572320633784777,1.0789289490168965,0.049632189808552364,0.47105569086257243,-1.6363484377759616,0.54392949289503678,0.88054259163526116,0.91562832520590098,-0.60936631231059879,-1.5643740161412159,0.66354855545911062,-0.66627393179671524,-0.10643805241673406,-2.0176176405474342,0.57261693040579364,-0.98762690571337519,1.50003577674481,0.56822971188243976,-1.2513430632399745,-2.6437829372525967,0.11380961110144319,0.99004427863546796,0.78730122222587673,-0.61392449538217153,0.76159146730983518,0.47395508747797821,-0.1518837744783875,1.0473945875417243,-1.1663392915924984,-0.22644639208953513,0.19042588643017913,-1.2135365533258053,-2.3994146835778114,-0.80690650790178009,0.45746741688338094,-0.41465341804919331,-1.439622758079558,-0.37794982458561349,0.55074797743611992,-0.43733352825003952,0.74029065378223735,1.3385372335585421,0.13655167371818899,0.59120261084002457,0.35895360636775869,1.7851552790104794,2.4682988832032557,-0.026712187505090138,-1.9597933322200414,2.6882142854522697,-0.27896516109797231,1.990988845975979,-0.74403613201099161,-1.144097262669826,0.85779692731662194,-0.046181175268952789,-1.9676386788372364,-0.86163070012880871,-0.11419727434501678,-0.7333171568570237,0.37417698256120324,-2.0135683639296196,-1.4343692701030351,-0.22590805013666265,0.98747169368364396,-0.076938906574754093,-0.82682287671296262,-0.13227847031061515,0.6792788113356194,0.69930426848846317,-0.50480663582745866,-1.4687748408394898,0.58195330750142071,0.37280424376688326,0.38100445432139302,0.26091017358878571,-0.8780543400397719,-0.013721151439928424,0.66483233522337004,-0.83401833803226577,1.3206216317825203,-1.2476081871836946,-0.92257130026428191,-0.076587040612972182,0.88255633914971621,0.56548361382065149,-1.0352299218579719,-0.3341575405101605,1.032835881941365,-0.95342354070022262,-1.4024500107253874,-0.95748243792035859,1.2797240039316593,1.5883432759808462,0.95518133209227341,-0.23472517119947101,-0.061693898559242129,0.80060157162200329,-0.084059370707201514,0.85288041109208701,-0.12820066551486478,-0.39770346054356587,0.18822240162033041,-0.89361917862969786,1.0180187169749149,0.062150177542744163,0.1960427940350456,0.15814929974916569,0.16887653709016165,-0.021937750170327768,0.067911934616140715,-0.98144862807942401,-0.089448325269435427,-0.69188855430557983,0.95020100695013221,-0.32223188234930505,-0.18244405714720432,1.6955940770911631,-0.93098086843488437,0.39363031298266471,-0.19563873894014913,0.40539208561755985,-0.33565568334962798,-1.5065726320049524,1.850562553796431,1.2749495415777052,-1.936501662510546,0.32712084908474515,-0.10293450674507851,0.11781959529981466,0.31004738963084161,1.4176054009880974,0.40823141142444302,1.1343604327495822,-1.7834973922720474,-0.31708266893623899,0.87347079537397654,0.54269601312851701,1.8085358281719377,-1.239443009636239,-0.594276613017786,-0.37967019231533289,-0.0053328425221272902,3.1180799233677901,-0.7244990213563326,-0.97444173318508709,-0.1686187672626191,-0.98415758488010086,0.24720481251298856,0.79952859072847671,-2.9850920745818743,1.0383610213574042,-1.2876304836248578,1.8333446984774873,0.28668861654567451,-1.476545684745467,0.40370534059912772,-1.5446489074722161,0.42393612210855069,-0.90661881442253389,1.8613472573009848,-1.7722379938554453,0.32534699250663374,-0.94962811509246181,0.13766836034542612,-1.2504851189304818,-0.46556767657907056,-1.2926525774219049,-2.2758597007576795,-1.4208927781632852,-0.96226174921458718,-0.12820967549919246,-0.5051318844056889,-1.9489701766087149,0.41445708206895848,1.1147116989524,1.2168351626516936,1.5533975797420652,-0.42293929422345083,0.034203927245740756,-0.24789958607286566,-0.94753316617142891,0.27348778143045621,-0.89333789826221277,0.38113016361454227,0.69711570184136062,0.10913817178765135,0.041245408349202713,1.0795419860269664,1.7427526480537865,1.2207165795658146,-0.94678336141881092,0.021001851843760282,0.31303924075458178,0.8629556348483074,0.25017733296641642,0.67532778272168559,1.2522388547090573,0.77492012612286321,-1.0281609789606152,-0.89616496513459787,0.15761836637605986,0.3568859261523919,-1.5314420950952177,-0.3650264678171562,-1.7191119653292677,0.024600110497774271,-1.2711125155068159,-0.63579436765514308,-0.71407455470868775,-3.4862457051284736,1.7783879689288422,0.97236884794352141,0.84232452732172158,0.071865008612877299,-0.42654261900205592,0.17394636690923024,-3.762258617148758,-2.0710874262274546,-0.9207905578708111,0.12146528837647672,0.78197086076271427,0.31408966443968644,-0.29040798104852578,-1.5373977276148507,-0.014403715882610888,1.0424448179113255,-0.29700589675107136,-1.6984591339909121,-0.19539575888235791,-0.33101608947431893,-1.3505656879075809,0.32857544844394165,-1.5682572172357101,0.69343329013031407,-0.26076387618176544,0.15725499194875991,0.64120497631476392,-2.1258314008223831,-0.62240651372343414,0.32011206714677271,-1.7042092687846233,1.9215241048950487,0.71946324724817778,-1.1535718518607081,0.57983188095075722,0.14252675239557602,-0.40916815996327355,0.55247187509451134,-1.2096314509439192,-1.6598967104604474,-1.1901547154209569,0.67080334793210217,-0.81547550691167114,1.4501989753774445,-0.082564004656722173,1.7267394953980459,-1.1236827954394772,0.77663103096506803,-0.040406860095697439,-0.0045416283119810615,-0.66565821915476675,0.81526602852101471,-0.55345015307051548,-0.31813692285719819,0.93400844806074168,0.62536983208816777,-0.19056909990179668,0.12805949668150893,-1.9218036994732695,-0.013482735355064052,-0.93979946326431341,-1.068037176881389,-0.25396316410439834,-0.85563415962657274,-0.1932142431340868,-0.84435736907081715,-1.6727167400469969,-1.9193971562644738,1.6242104488330456,-0.17840870330306441,0.17873083224298489,-0.050338900307601651,-1.4594838975349138,-0.50206294208140212,-1.2827647709089161,0.37766356772979243,-1.0727401120082396,-0.5452419670657781,0.57454093193423583,1.3421921677814952,-0.29874065384797177,-0.17211923079732833,-1.041311726833225,-0.61755640269376288,0.18677618632855172,-0.99565089195365741,-0.69486491442913956,1.304157636947155,0.31365521760165416,-0.33754072212804059,-0.36728652702730091,0.2526380815537973,-0.17538463354986805,-1.0304889169137987,-0.0093236243659013517,-1.137520587137212,2.1960805047846348,0.0024198987937465431,0.32436635019286419,-0.49640286142938422,0.41133848674889567,-0.27042502819110825,-0.6264586322986232,-0.64926765884957693,0.44002717395833268,-0.96613995641057082,1.5326553628944377,-0.34200833216981213,1.5539564633541647,-1.042925356585708,-1.0318685369588836,-1.4122258656504112,-0.47230183068927695,0.079451930436454474,1.1944449963045827,0.26030239591752391,-0.31747805140270297,-0.22984461187513411,-0.0033701662462756925,-2.3025607040903955,1.8577753879560988,0.75476573277383174,-1.4941193969840534,-0.59651142944872859,0.015169017656033951,1.0683067369394352,1.5165629329289492,0.16142009507812649,0.42954522771138337,-1.7316739134617041,0.41228480242323395,-0.14039314125964633,1.969630094522294,-0.29587443092963261,-1.1140722646401189,0.772725733253256,0.91786436616612521,-1.1556517935248733,0.59413054531282672,-0.20008334628193303,0.58954380038895815,-2.1876284856306536,-0.9074765302699902,-0.0090523989221866115,-0.96783754773745445,0.96256456089017728,0.0077500698029571834,-0.33050613443336962,0.55453704081230548,-0.75202434749475544,0.30579274374433874,-0.88020920251604706,0.69297318036101274,-1.1487146246469706,0.69046767656052388,-0.84994468929922296,-1.4400996501605032,1.2815938664801965,0.51127112947143238,-0.50227444759704842,-2.3184968545877886,-0.016968085622791548,-1.9524276873597208,-1.8016690575960004,0.79265870696625373,1.9482660079577006,1.3579216924816779,-0.65855272822154509,-1.2864669261008606,-1.4082161194643241,1.1076062564969074,1.434161278519426,-0.50493242676196992,1.2812827314205602,0.86433685939797433,-0.46794182195542211,-0.21483067297151423,0.43195485043176507,-0.0049611373956409627,0.92241360556687213,0.055997464820837006,0.41897203333969235,-0.17867729148792244,-0.67828976017483966,0.26406549263751256,-0.55734894653840217,1.0516314498406705,-1.1118221079021156,0.11735067873913921,0.69429020544056241,-0.61084909306618984,-0.8943045662941953,1.0642231175515235,-0.30608465848668565,-0.37401556283494591,1.7193184303324323,0.23065679540007172,-0.5611769873859731,0.34259133523729668,-0.1642171005853155,-0.6527782734932025,-0.29073959274701167,-0.81664272951166239,1.9745780952342935,-0.070693670711799605,-0.076794934771272111,-2.1998810861613487,-0.87122476021885487,0.50009626851692845,1.9930511175107222,0.95341963493573545,-0.040246396062834401,-0.44169799986153402,-0.065637108561026322,-1.5144357729678317,1.191479186841315,1.2814385392373937,0.9539539553415326,0.19722459377737336,0.92284400821819534,0.93899787436886495,-0.79056999256389626,-0.064356613901486975,0.65322146245064183,-0.58596741842631261,0.66845425313545492,0.23117685514537542,0.59718323414028507,-0.61602488724655469,0.91917437100788391,0.45951076505576299,-0.32083701841634521,0.99818522352635575,-0.28184017035984632,-1.0770594537435791,-0.19830732336315018,-0.42883538992069781,-0.68594960857610743,-0.81353920627337473,-0.09160322685285531,1.5807563234287751,1.0963572837990163,0.94499980570486886,0.067722915535531544,0.33279934821670443,-1.075325784853763,2.5589409449371221,-0.060405437253665539,-1.0797236995163426,0.25725640661091598,-2.0471482726090144,2.2449717583644713,-1.2010365129346143,0.89259976169532984,-1.0508054287549091,-0.19228125526195783,-0.091475694991488873,-0.093206196855521617,1.2354927789512808,0.78565916832603699,-1.0626660310833151,1.1840259001935742,0.74035867449642501,1.6298161188582492,0.20316651217194087,0.2931807845193441,0.23284065790546901,-2.8213643654179261,-0.2083475116689526,-1.1908470656809254,-0.42170690271168504,-0.58222615229151975,2.1402716766061012,-3.5584713686850336,0.6196432068732588,-0.29039991082336342
0.033204175048916519,0.38059057773314275,1.0869482487220685,-1.4284701458284765,1.2696298929134624,-0.23009668086087134,1.9378679116082045,0.0021050382543083041,0.8171819133750845,0.850376168661928,-1.1437426955529268,-0.66670068598083598,0.13608173455579234,-2.3229317837314012,0.75337854477093658,0.20650672875809337,-0.70518283708294061,-1.5913678985530744,-0.073963003473642305,-0.50330213423699244,-0.28029897138657489,-0.49865177819341827,1.9688197155480576,-1.24779729163546,0.079781170544851551,0.49807893740967923,0.50319564552261997,0.9997282710194545,1.0347990528987825,0.23916081154520794,-1.6624470279178585,-0.36553392755073977,-0.65977630008404631,-1.3054766367625739,-0.64422758692547788,0.44576407007174312,-0.52152343338675688,-0.57062791903222332,-0.43031388395746339,0.90686389535893608,-0.77751484139137306,-0.59840118397610265,0.071440720051216544,0.33989766713337377,-1.056968483090629,-0.43716807358355481,-0.89784746988642339,-0.62287642613202099,-0.27361193193994388,2.170355835561578,-1.0505597971607423,-1.2760393395954783,-0.49835349498934911,-0.19051990780120817,-1.0752350387579321,-0.11156268902380088,0.086475720560914363,0.17656386227382448,0.15323455948181774,2.7625817690247816,-0.40446700384525003,-0.40783465853150336,0.63176487999908537,0.31189051300680531,-1.1106270184201175,-0.74049845967838146,0.33759634329468707,-1.4759760309422587,0.83279121279993273,2.1703605055783575,-0.1593844499133604,0.26635803396331059,-0.63164305711236823,0.050035663354879523,0.51413511701401948,-1.7962217258605837,-0.15848659420746763,-0.55526523403075678,-0.64798084055652083,0.19792156079449494,-1.6022409159699422,0.10410435051995834,-0.041267612733511858,0.73216516748870075,1.316438569620932,-0.41237921850417092,-0.38974033497332639,-0.69154562689290722,0.67177620329573162,-1.0870773182760483,-1.8271031445189407,0.42707832615811153,0.13524179797171787,-1.9571261885743507,-0.76677131039294966,0.19849764048373703,3.1885515885285507,1.6830147190776699,-0.83653164315111261,1.4273446135108443,-1.325915990084706,-0.21336940275745789,-0.45708068357593146,1.382513963288563,-0.033908763102498012,0.43782509929506386,-0.34330930590549436,-1.1371782486559714,-0.54675205661838422,-0.43175769994124413,-2.0739656750639823,-1.0895879713425558,-0.53947760139546252,0.62603470426469288,-0.30153524190659126,0.42987795080363245,0.17784662209233063,-0.019227979635310807,0.68616788989966404,-0.32279268474767175,-1.5255202039166222,0.076851304604785523,-1.2778186620451042,0.13907883978705754,-1.1672597050810685,0.60816541611779684,-0.13216651983876099,-1.8075426198797973,-2.4686558038200586,-0.12255292589169416,-0.69599069709672867,0.02997516325330362,-1.7085623202298179,-0.62818902799176113,-0.29778423218952538,-2.3568744681791078,-0.29856203369351159,-1.3675767780003285,1.9080293960249306,0.072806692804451484,-0.23865010997325692,1.0704151570521165,-0.8110299552529473,1.0841528833192251,1.3157097142802001,0.71794277006347185,-0.31851415255212001,-0.03477807730858469,1.7527500139755576,0.13315830767753226,-0.5516085847508464,-0.31321320865619129,0.28161013013832337,-0.068362262805472598,1.1909697702861302,-0.9022109730666974,1.1151607397287668,1.1009534806766679,-0.62580013389424527,-0.72502109822846172,-0.58524967773647418,1.587748233269658,0.8056539095348878,-0.45436774931373891,-0.26431436020817856,-0.040538018874701001,1.5336740659990562,0.70686015895756404,0.36187573982238885,-0.62243975849240674,-0.56963051255694197,-0.44472983432253299,-0.048017478516245216,1.0749752669334336,-0.53127998385468622,1.0048628181823147,0.29785732460688613,-0.55947955343581102,-0.73230509737703453,-0.95850530048859284,0.21737153453229952,1.2774204212994555,0.40907949790027542,-0.81196601717234396,0.716695749868697,-1.8910092882586518,-1.8805846448665773,2.4099251520800862,0.98181587544943361,-2.024127619220319,1.5735234497111545,-0.50467821114071176,0.12304490371214355,-0.79261598092409957,-0.64869008321761368,-0.81014837657561267,-0.78214509644585528,0.52513151785348422,0.37350536100627713,0.261830925562196,1.3437840070403841,1.2122843267826235,0.74421671922042443,-1.9570750598145774,0.21741168576416614,0.67194830941639827,-1.3673840528636043,-0.80999452598557176,-0.12699151621699492,0.91689454444503915,0.91188625931289957,0.20660370440535547,0.54602378977183019,0.7981966781354114,0.10957463164878885,0.94265217471822593,0.62200884916864696,-1.2436333904212433,-0.35704843579092715,-0.44880658808270879,-0.29301544740858726,0.41232881285095996,0.66102414579518276,0.055625833928241122,-0.46823594453543493,1.2326011039534825,-0.19640252672227967,0.57852299662812878,-0.17833122391292297,-1.0926993742745861,0.21092820674251536,0.42807201886834645,-0.50548789740306932,-0.4073808586755856,1.4225708986857353,0.4828011828030272,-0.73998338476895564,0.68625261288325889,-0.33439734049147402,-0.69108994825241099,-0.4572946340068485,0.78645618089096581,-0.3934625766170603,1.3136798447701283,0.98847577185938851,1.1128163201096408,0.84648376502184186,1.1310017138550124,0.87621911738845737,-1.2019945718239162,-0.036273146951436797,-0.88018170989114064,1.625372320583252,0.32947623582627533,1.1324265190002274,-0.032583275453171801,1.0468177068863447,0.30903623011046732,3.1486831407015301,-0.39193474122958566,1.2397540265287528,-1.7882883161879692,-0.18694578709604337,0.96995213546568548,-0.78087749261071493,-0.35649836899623738,-0.82359586834362997,-1.7925837716690671,0.36362486225513102,-0.039694126380510925,0.75700473105566213,-0.58049395945078119,0.40793668037261316,0.41030812341946932,-1.9381331671795097,0.15006102092215684,-1.1493006840306501,0.24023986292331947,-0.77171058395670422,1.5521482898382686,-0.11589444117234986,-0.0115932124887587,-0.26212481383518377,0.22922054222665322,0.70499681867797448,-0.5966451843913112,1.0078970274812831,-0.23622288689959237,0.10126682897683957,1.8718947199688178,-1.2466630657024376,0.96264350414994437,-1.4204704509081922,0.71856541208157931,-0.385831670434226,-0.83535101693780756,-1.6052590976296484,-0.32722654519144784,0.0088463828144885251,-0.46571354955230598,-0.74661059393883922,1.1212885705873343,0.51078636029525049,-0.44472927320248784,-1.0791692955939571,2.2191429903126174,-1.2339882119045966,0.92646142047260482,0.47557262169768433,1.9813867070701261,0.96940498766328087,1.8595553050696827,-0.86408688743192874,-0.084493398903719263,-1.1494429984440488,1.9048056521573653,0.46754323390663149,-0.62636425875466228,-0.45640863805236481,-1.9285934816991348,0.46003006438416433,-0.18257161732293983,1.4514160532751819,-0.30492056388873529,-0.77339941837275239,-1.0146026854728902,1.0699771838088161,-0.11429186419499608,-1.6485031844364577,0.56033015981399614,0.30446665585718913,-0.16795916339253492,0.92252924915713486,-1.7290271651916174,-0.473323993603043,0.06269963564170479,1.2337658760996344,1.0557639158243568,-0.94629733162502916,-0.032070378085048604,0.60216545608123007,-1.7748810001551225,-0.58189040949290671,0.27318379057744691,-0.08955080993648229,2.2647761916814089,0.98264559649542238,-0.1259919162542214,1.8975068522063743,0.99081420900245987,0.040685101269188902,-0.62245343719180835,0.23651954757669949,-1.2491189678506169,0.60223159523048131,0.77006040781526142,-0.44120454580105301,-0.29119643132928869,-0.85382728122376772,0.37810080811122537,-1.482400036498593,-0.38245554236003865,-1.7190139299748965,-0.59198834658869082,0.28470182217871393,-2.4805938491280526,0.60824663898786069,-0.64349408689903198,0.75558000614499099,0.33867705015703947,0.89961164686458439,1.127204702135852,-0.53992455933821726,0.9477546309659578,0.14840362985907471,1.2338297297426986,-1.6057692924419185,1.3018316158535439,-0.50060309263954772,-1.1564001022763821,-0.99619128025140447,-0.77737792094962532,0.58782508446703763,1.0620696034099726,0.071127901214252595,1.7240701327807144,1.454850306294164,0.54816249722067856,-0.61754652526647635,-0.07731684120409868,0.045615208438046957,-0.57953195857926532,2.0361864190404715,0.38254479861882384,0.65016678860346377,1.5950338043561043,0.29962163624982496,-1.1538331495625764,-0.60439245158221688,-0.8786502960760233,-0.52072393397883943,-2.6331462786562243,-0.042223132209067413,0.28133010185625001,-1.5076888018395693,-0.73776544379485254,-0.30281712931384097,-0.68737897457046859,-0.81010102196516587,0.55206400197717043,-0.51364177927763954,0.61911885605500694,1.8346408805433754,0.85813683897616266,-2.6696671181969105,0.38386568236712149,0.73714631293222388,0.096674473409315592,-1.2234103193311001,-0.10571153618453449,0.59959710628746932,2.4777930346926205,0.7468492562552459,-0.38440535855976476,0.036148172501718104,-1.1636048452687904,0.17567936089508962,-0.33475168682964845,0.27816708120223432,-0.35377247861716188,0.71836255005926464,-0.55311148328352633,-0.061606638531527633,0.35680357038931254,-1.470293637036733,-1.3019428593902038,0.095415662956055983,0.66749930850557881,2.6616415445744286,-2.7944971661632536,-1.2225536370481247,0.97853856067066514,0.30342067241548587,0.56464825808154073,0.98969835125899208,-0.041165249696478036,-0.93414732600988792,-0.63523543466699917,-1.5634830916226927,0.081684861267768763,0.4716628083436043,0.63579145038619178,0.96495855755014481,0.26620734796270967,0.89356663341995168,-0.51692012750369276,0.44587240742810536,0.80205309558132909,0.83392695070233136,0.86487545464096915,-0.55507524013482845,1.0857449987429642,-0.18145267438870119,-1.1665661801110285,0.65143351110605574,-0.13569611391780131,-0.77575717273000189,-1.4318326568547883,1.6974585301968621,0.19670478498090815,-1.4873641353107054,-0.8337613520270134,0.35516617117017368,1.2301039648397911,0.026557205842108137,-1.7517143402171182,-0.15707677363554789,1.1493778426556898,1.1099985229899656,0.51208170357625293,0.2255363512392361,2.3103803237275105,0.26058572456231366,-0.25647729046872969,0.12317282347912813,-0.47880944711758477,-0.0011387984589545602,-0.55522519987924013,-0.12448316383757313,-0.042838416152179669,0.22429608123575359,1.7467268449608677,0.091003441588770925,-0.27658501345750791,1.6778393337052455,-1.0567454354359962,1.8118610168146607,1.1290004570204586,-0.615910947503581,0.11541085338774705
0.020111984846347911,0.049061735605484151,-0.42151693067746704,0.54783138008207521,-1.760859443590626,-1.8921311161856893,1.5389137390148795,-1.1326982270614587,0.92899955126363287,-1.638385610092232,-0.72783039395007076,-0.61976870969677178,-1.6300599412800452,-1.6373119973060877,-1.2601030030737099,-0.4002462782642181,1.1359749671610953,-2.001265956564299,1.0563435038110702,-1.9535697976560429,0.33161444019790076,-0.65279867954705573,-0.66561995000090668,-1.3015446033947229,0.91055317419793813,-0.92041218813949255,0.57038049216355802,0.51604643953847629,-0.92065564712292502,0.61839916150669594,-0.078115924528151873,-0.88402972866154372,1.0140631334415242,0.28416098756484975,-0.12368803279048499,0.19881726769080801,-1.1116936185975721,0.496404437959308,1.3074542925188184,0.60738923539154432,-0.79748818650289355,-1.0439845130178254,0.58661783494223252,0.98309969490591986,-1.1276990433115957,0.13431725651088891,0.031085641589790942,-0.2786159868613009,-0.2948610628328362,-0.51091445404556912,0.7881601839662371,-1.6993243835692093,2.2224558856382415,-0.23896674523766115,0.29443521570912334,0.56343004453612122,0.45875658482172355,-2.3437620096508032,0.095005959891941799,-0.57388910123849945,0.12072096476927413,-0.1221142349810249,-0.39214962817344851,0.47745935510974741,0.06284648098170352,0.21257420617719067,0.32673637920407611,0.92850336050371296,-0.51597395674236124,-0.18424900511156819,2.2632315871206283,2.4461645126000584,-2.1419427169844654,1.6332320714233819,1.5801063368870054,-0.4998461981263384,0.76192738131539894,0.11707723346425628,-0.042355188117036556,0.60158784504285667,0.82380504884696493,0.14231561343132076,0.14586411827824314,0.052562081928495527,2.0589330905738881,-2.0917917100008792,0.20667348401468524,-1.0143851721083339,-0.45975891543537245,0.75684546137898068,0.6833657100157583,0.50499667286950578,1.1865654288312624,-0.74469252559190502,0.5539614810454907,-0.86492197223764988,-0.95969115813407091,-1.0654055681371659,1.4188820622218934,-1.3978000427584558,-0.49892955032395442,-0.0067848287980508161,-0.43787920783603862,-0.24455781073413366,0.86504253360715744,-1.0923957235997765,1.5278754965592545,-1.3371528059861975,2.7717335914226484,1.2059596213666635,2.6736768054188813,-1.6772500322609134,1.7487391036062299,-0.060002313737894705,-1.1447322050119619,0.59603788549168679,-0.45982042551450364,0.16610074443853282,-0.78170385472290549,-0.63067003032460078,-0.48557732418358507,0.13135644528688728,1.0110524631003297,0.38624830238821184,-0.96235573152196374,0.89149599523602585,-0.6557280757152868,-0.055343393155450664,-2.508957112963389,0.88344587506338668,0.51220050395323136,0.73203618359210065,-0.067046264932714247,0.82966823744946827,0.24069677837971576,-0.14581686138451572,0.022649855553621499,0.55195049048250933,0.89770578590833106,0.85564052467566787,1.0049492167293597,-0.50726623743081878,0.15243735006430043,1.75640299613897,0.43156071992123979,2.1391995140702802,0.15908549149918177,-1.8339134171979272,-0.039331736129317278,1.697918554447531,-1.3915240622217029,-0.58161266385564614,0.21589020190336208,-0.40719196615601377,1.0656177867960772,0.49988760387962755,-0.050568633045985655,-0.41824411248808335,-0.41130910335443271,-0.6117256069217748,-0.35352625055820208,-0.91536511050839409,0.099974792026193443,1.1979868790439863,0.86100381810017135,1.0255196374376352,-0.035674602782866743,1.5050799435377318,0.6458113958880326,0.27318138929604902,-1.0508764362843244,0.89884984477956575,0.14897440532196998,-1.1954082072573917,-0.27091008655730897,-0.021179947126042951,0.42583109483107295,-1.3160518816440008,0.054028198644376871,-0.28498080577374285,-1.0246695116698057,-0.66962510661357744,-0.35921979149757516,0.86672465889475858,1.3366538161915535,-0.17482084323859856,0.37464108681104319,-0.58455681366074741,0.14263119368940733,1.3670016898923827,-0.26568165195103505,0.91665067998722449,-0.41264863618793979,-2.107221314176237,-0.56304220658338344,-0.93280675326996987,0.072383218954028175,0.92448796434514147,-0.69793459118340062,-0.29326850801430671,-0.55080236150900808,0.15748096404100653,0.89847330102031808,-0.018657177655713345,2.7636763084692402,-1.4052126229162105,0.2167799243018054,-0.85363822382204158,0.19112362876622654,1.0031961663997413,-0.76426105719983206,-1.0782194509529748,0.55533110937247787,0.81321328302245643,0.8678535801977475,0.78344191475442926,0.74823116905423626,-1.8265848773294429,0.83973642619492306,-2.100166305167944,-0.60387205971399605,-1.1920596688891152,0.85129681490798459,0.31939625681008221,-0.78553972505342007,1.3123712274278212,-0.277210295842166,2.5530368822649501,0.58157764488828234,1.281175289978538,-0.13774036425401723,0.1231542594765961,0.77219736837356168,-0.14854871910571013,0.41577064757380089,-0.31942775862139483,-1.6862571350939393,0.047695543479694409,-0.11772061314226615,1.2918618950316274,-1.6684905494106139,-0.2094375221541315,1.0871515472520721,0.78239835243991374,0.91510116668513686,-0.059781101026289488,-0.55670761265144841,0.50663395266728428,1.6144095430007934,0.89703547747745149,0.56231464192054814,-0.45730744648952054,0.077547733623967885,-0.29972275056419634,-1.4129912038734407,0.64523674711496426,-0.64063863516876696,0.053142366318861184,-0.3211746305130152,0.4647427793270506,0.04692377706181021,-0.305073390085362,0.70497446727288793,-0.40601621539034005,1.1000262932684985,0.2533641763640323,-0.9940800907354701,-0.82850865858787348,0.95305591484978425,-0.61550744060440366,0.79066209526310516,-0.59002122242948452,1.2535121162200842,-1.1065794332589254,0.55885460915516316,0.22247637205264684,0.46527688520635696,3.0103303101980501,0.32227302199696162,-0.45834796754941676,-0.49279318795030103,-0.10048056348652561,-1.275599088786316,0.13533785293078704,-0.91656197845053866,-1.4979876296560886,0.79955603074444925,0.61795068916797868,-0.35211337857551295,-0.29928116720253073,-2.3868438006967674,-0.65656950001651671,1.3335571993807631,-0.57637366535380163,-3.3126129203483492,-0.12326020015773703,0.035134127414544448,1.5245065066281829,1.1971632015342271,-1.7440281512785094,0.34707582156809214,0.86934843514116444,0.34420041625779696,-1.5595556655751865,-0.356108679361683,-0.36622173425514132,0.036778534312703635,-2.2066738123046417,1.1262362734793929,0.48252985683909788,-0.71193134606113084,-0.99796706270040547,0.11004298424470592,0.91743692036041724,-0.64475249656960609,0.40942645275644124,-0.53731250286098953,-1.2798930938114148,-1.4417860476578066,0.55203393456072514,-0.79782261089158024,-0.53861573971263366,1.8502653798043938,-1.0501210166726729,0.48119734240643569,0.95653840533633805,-0.4100238716146003,-2.3996703814209042,0.14551137882478946,2.608264154846768,0.71037362164329199,-0.29808085680560226,-0.21075263267940833,0.16043792924497893,-0.9737338339878,-1.7191433611654605,0.39487590446222898,-0.16558397235069472,0.87663849074376687,0.44696892412809464,0.62477661354469582,0.16752021620305149,-1.0081834333755475,-1.0013440657722805,-0.73108944394705322,0.13834921397486349,0.20054807124595544,-1.3380866480586331,0.38493216417738385,1.0166069296371976,-1.0262475207229738,-0.099334033507461755,-1.076106200277879,3.0379093652829252,-0.5913912251890342,3.2682514298547831,0.55428789190362981,0.20322725968519839,0.021775999437354528,-1.1402030665099561,0.14987858631555537,1.670799566845278,-0.31921603823740197,1.4588650632474525,-1.074031189584316,-0.684927233088512,-0.62065890791209233,-1.3771421824854835,-0.89340077238154414,-1.1172356424000078,-0.34953410118555167,-0.89804409173006694,0.35454877590782657,-1.174670677381848,0.48238248943180717,1.0885495447127118,-0.01571408875036082,1.626212953158563,2.1330134354756765,-0.35965610131931347,0.92393358888516963,-3.0406588597142465,0.13617214189513388,-0.57587298328189385,-2.3852105059857145,1.5268263564554341,-0.35415813619790038,-0.58504037185963864,-1.6240043977980461,0.10277033242633019,0.89320315231169112,-0.47721046893361352,-1.6534965406675834,0.17335317451985618,-1.2242652165526287,-1.2815931026364089,-2.6465406283791704,0.21791737380068724,-0.50050988728392309,0.048168759436605112,-0.87086579762647232,-0.073182185263099206,0.54464725306494177,-2.3131742784644342,-0.98622219737642702,0.5900848091999692,-0.97436249406691433,1.338004029986507,0.14466906495367612,1.5315521442659064,-1.5150817205589884,-0.85466100047541316,-1.0827599934189056,0.58317206987833592,-0.37547594087377933,2.8997208785148398,-0.17402861355251176,0.48549315601913073,0.3517949603756233,1.1076483155456818,-0.066335175182362344,0.82550154131401199,-0.63765701412641684,2.100079610243319,-0.61862891747027771,2.3554817155431977,0.50711239646156492,-0.70654715554573755,0.81596419092275918,0.39684367325320452,2.9007061668941838,-1.2427306357573873,2.1454963756320411,0.24769064402504884,1.8068761384420367,-0.18901891093129097,0.088452139092590185,1.0625256213411176,-1.1865636234258092,0.92818670547230797,0.11629000374030608,0.052954098678806821,0.28075246253694836,-2.5954738268175803,-0.19572826696878462,0.63085199749482068,0.21366162454424587,0.28360035619838736,0.98629748095733161,-2.3850365610477366,-0.61105831443324432,1.5816975351239118,2.3758477017342226,0.8009089152410882,0.10018408748284287,0.56523963802991528,-0.60257437920236478,1.4268080307821405,-0.35736310544912681,0.17519685246006325,0.031475596675260661,-0.23278113231766087,1.3602473789317799,-1.1941206127850685,-1.1548950230457002,0.2026160467077118,1.6860221100362227,0.30597083298174277,0.54949537925725411,-0.39137165794835371,0.30157416568642748,-1.1017604011959308,-1.5730210888757479,-1.2582701064670414,1.1764333009044103,-0.89962612626505556,1.6347269213748084,-0.31134276933055904,-2.4740034279612724,0.95973468871547951,-1.2829784545269847,1.2537069099608662,-0.95323736752790156,0.15827793722751887,-0.68345563327478154,3.1109610288558156,0.394566483055517,0.65179032958128713,1.4461090207727303,0.48968002575688663,0.45374452200740489,0.11870574785779976,3.3275131410379921,-0.23442553474296643,0.71209703589837803,-0.9524921211949442,-0.93862196760999428,1.4072052923240621,-0.27799982213837654,1.2361626379097326
1.4775571656505602,-2.5357789869353056,0.29877615506050814,1.0032941921587277,-0.04681613384588626,-1.0976132927470219,2.1072741833387241,0.24076491012839848,0.36239756539215218,0.61787603456227924,-0.89117841919113516,-0.40993520037519926,-0.21853398651444736,-1.319292184075366,0.10511609923867705,-0.98017321244389222,0.56547804112624978,0.98176678333528988,0.84374107208216464,1.4643312159123254,-0.02403713039410476,-0.88024988295210393,0.30006622656235488,1.3047540636542054,-1.0192937040682846,0.83672938191157875,-0.55258859034584984,0.89966586682167871,-0.87466126444801473,0.38741036820255553,-0.05771120650609364,-0.30382085514171908,-0.92246206884990989,-0.32294594492538814,0.26111573604789262,-0.062650546346951122,1.9453510523712181,0.3705985293378663,0.38191061807149052,0.0025966613015107284,1.0340725347745017,0.55824006896703671,0.37225174916540837,-1.5466164462270917,1.4050909215024665,-1.2885263407108387,-0.49606814792143228,0.96182957640790112,0.85640063124582533,0.082632789468983447,0.45685733899467407,1.1390045352652574,-0.63789789689048038,0.8745037250618567,1.1068944617753034,0.2089406086613973,0.37457158962382636,0.55440790734719037,-1.2973241592421678,-0.22298110641493921,0.99723641720135847,0.0047439006759471304,-0.046467422291770928,1.2293763758874272,-1.3919708972257125,-0.81502977651999675,-0.81653729585211843,0.36088042590576691,-0.87603967719118703,-0.074721937172210595,0.75525426767989745,-0.034810124233892049,-0.79026148096589699,-0.38404268812533471,-0.56467380020571434,-0.92236025130814969,-0.016241630478365195,-0.70104248014720594,0.12765508141944928,-0.65676696295171311,0.099793471503789227,-0.70586590573513253,0.35366837665847284,-0.95283353044655694,-0.64091536910423919,0.58284962326243106,1.2706446465335384,-0.32627645078240441,-0.71344976477193389,-0.20074525075691577,-1.3604209676594337,-0.86625991144187175,-1.1412400710490338,-2.0096015667011864,-0.15170735934154142,-1.0474360790196462,-0.55797398928455588,0.24734155618752177,-0.13332567969070699,0.30857816412332856,-0.030087696054084966,-0.35355894234803159,2.0817736911745004,0.34294436726102534,0.39256954327399768,-1.1988122495197662,1.3415385938973683,-1.8148425857552895,-0.38152999493617146,1.1525661487505947,0.15564141087927058,0.68180237072212047,0.86921334426582098,0.10413304628485001,0.12895034859884472,0.25134536179177552,-0.75944277656308923,0.47682796918983289,-2.051644121717596,0.81419187636717683,0.8534713030166946,-0.82347375926299793,-1.4922137157396935,-1.3305752218933597,0.50989044551188645,-0.68403301090276081,0.27154381205812544,0.28874531297415235,-2.5355720072364138,1.3630932536687641,0.45389428399255405,1.2753019311729923,0.31638139782992997,-0.010962378786827025,-0.23744856443032117,-0.41076669388792425,0.44452417638789216,1.473159506365241,1.4513429917940228,-0.032261032162384302,0.84918940795903564,-0.81342763237092353,-0.73044706239684054,3.8353121313471901,-0.35744315227361417,-0.12781577591886129,-0.32978998044659369,-0.054594547927809982,0.91038022793084927,-1.7468588600924164,1.2401127287656153,0.17141649781865737,-0.98016892163625757,-2.0741519308344931,0.036857030308256322,-0.58969721392173979,-0.33776562213168027,-0.38659910062852537,-1.5699004007370492,-1.100930609858948,-1.1567009779820254,0.87387437675134882,-0.23346310596437245,-0.55890023271685174,-0.54749506200620301,0.41433247886395441,-0.28919860864898594,0.31566147575595155,-0.19924968900446399,-1.4179516376463741,0.54659684313812851,-1.4696147847806711,0.81332995376762374,2.8350553709061073,1.5462849840466701,1.4056265448181706,2.6980370906198292,0.96799936331401226,-1.0473599956067141,-1.9156259150967445,1.665279146107485,-0.15470542305715582,0.14044352647753072,1.0570751485370975,1.1900823350055514,0.098264295772197335,0.93972682334162361,-0.9532229594981213,-0.61398490858435062,0.78696006349544023,0.84439852773749891,-1.6489716959257639,-0.75824867248295169,1.4818685561787741,0.25360443986222764,-0.041019736024869087,0.3551236658820171,0.36150610053583865,0.47547471584584367,0.23264027208499855,0.14168905665193093,1.0117338966372285,0.72888191864470508,-1.1362329713166959,-0.87567736547325714,2.3702510200251248,0.91863598849797434,0.072522884547890146,0.65033384206318667,-1.3002720147882938,-0.65901234537593523,-0.082859550932656734,-0.91399143084956025,1.3410300987991008,0.20736020924786186,-1.6551375308259446,1.4242910227252306,0.22299756271785257,0.75640293420563087,0.27961389976085876,1.2422144530415651,1.610967423292859,1.0533746554233381,0.75640250074342952,2.3028702859996821,0.89272224332328665,2.0136287346289472,0.71568916862041421,-0.9181195151908782,0.27828374224196539,-0.46187220317591554,-0.79685260947028491,0.40853921150500888,-0.50149039718234234,1.1542494162192694,-0.014101286637944067,-0.3702228752901649,0.012494173728333629,-0.51996279104968202,0.43643887062031211,-0.5048706747993692,0.96930056352977401,-0.16383656731896759,1.0330630429120353,-0.082228496864957604,-0.63013109443096427,-0.018906433412516303,1.1203342231398834,-2.0219372610067228,1.2095219572830485,1.1440684424437211,0.39281590350110712,-1.2547860308284646,1.8356580688668573,-0.10866198262213064,-0.34324996009280651,0.12478083396676674,-0.23034066729873948,1.2975006710077015,0.47873131271368952,-0.57348793107067786,-0.47144318867468732,-1.0375595074428061,-0.47392040646571321,1.0951756432498045,0.038298722062624781,0.80803986623717838,0.295764854680652,0.1857284162436611,-0.5978595059040237,-0.14837079609813827,1.2654469333989682,-0.86498730636234844,1.2901200705548157,0.94124068552834184,-0.42294340304620348,0.52587619782385653,0.33571157959359976,1.8919580576813138,-1.1000668733398502,-1.6438357789708442,0.20040980277217671,0.11049809109552061,-0.32270488346129605,0.74743876511315455,-1.846618125043811,0.35042622379290744,-0.064647378460610402,-0.19945255466438194,-0.21088949400537793,-1.7503998072863061,-1.6441046339610172,-0.83804741451086906,-0.61645310771608586,0.46034341385283745,-0.76734960172415134,-0.54675154076641597,-0.16399370932106624,0.56360537553946743,-0.9753228782287533,0.4550308632632401,0.81788446915812563,0.086550148076995514,0.24042244847841202,-0.29764156622874821,-0.021693894367703456,-0.46693468280814454,-1.1875011067717292,1.4661048858543382,0.15919768108497317,0.76997155615923096,-1.3503202825069252,-0.92023776533992507,-0.88268274960076865,-0.039726644720942533,2.5153010977846817,-0.7313584780343767,-0.43893732520410184,0.4435420891087396,-0.99830934777496361,0.31306735403860486,-0.28805599610687627,1.9208857377388215,-0.21799271075652879,1.140789394775567,-0.111527215442626,1.511956786191277,0.37893280777635258,-0.42009969596586616,-0.47057265106705526,-1.3402552605065987,0.82898423607372029,1.9842632463313736,1.1245243174646022,0.25326653301946128,1.5096759238703996,-0.53680631519942601,0.86303504889278249,1.383403219548424,-0.59058953780855494,-0.19489230942328031,-0.16628642913446812,0.39782390603313378,0.36023857848149837,0.041918903874438793,-0.88137433403687371,1.0039705713776956,0.89255480653679153,-0.33206274037452166,-0.2503707190937659,-1.7601104318905356,0.00094961054354900868,0.86198607038447805,0.37388956952570546,1.3020107573576345,-0.63305913981968009,-1.0453474932207591,1.2174779047881128,0.96877479659556576,0.74467116498680541,1.1142846731626628,1.1952732138000715,0.65034333129826516,0.11263785817540466,0.9055438204878502,-0.58784250946309102,0.11459021201085062,-1.0450245502435305,2.241694531623978,-0.25082928964949303,-0.0083006681149073985,-0.88389041233073828,-0.90192154488994303,-0.242216607879331,0.99959892069526457,0.11561648304074178,0.5495507923967351,-0.34402377815932084,1.0732286715568717,-0.62155339888041183,-0.17141203351370615,0.87650446198031262,-0.22933141064246587,1.5448752621330186,0.92403017822172928,-0.53665672178068835,0.13446990695007466,-1.6972237483389643,-0.44952763711756089,1.1508863714429691,-1.6308079145900776,1.1042128681365482,-0.36333136885164985,-1.039138644405355,0.82621096179460574,-0.037421120751658675,0.39622609599368808,0.22197569054490127,-1.5104836914142095,-0.51386302583768717,-0.34163945074814961,-0.093422646362932682,-0.11281004161408333,-1.4320773998653928,1.4585346683388318,-2.8203216626577778,0.66325080523364477,-0.1905603341085613,-0.67327055946671033,0.077157757843877017,0.70467295078098824,0.97202299749135002,0.34762731971992616,-0.72680160991798803,-0.66278223697143945,0.19604130025784805,-2.1069468504465636,-0.31935417847628594,1.5298254000811722,0.025623727881422358,0.008980604231725935,1.8209601171052756,1.721776886768005,-0.20106578489562235,-0.40999429294609424,0.24008745280909646,-0.6589052275774232,-0.99977465063863868,1.2633472799610326,2.2058450125531048,0.27577923502904317,1.3705149881124037,1.7121008125589754,1.3431364042126872,-0.24299005473769736,-1.8020335506241674,1.493870829011591,-1.1811842331662386,0.55890940389403476,0.41250753538410562,-0.26367630644412504,-1.0969983510018471,-1.2414974903363771,-0.21347709534887332,-0.65431307723023724,0.15670202491826157,-0.26173152196067034,-0.12051779357582156,0.52196227265662687,0.76573773604857542,-1.4697209775669249,0.3367704079888808,0.8344835087959277,-1.1019422851459573,-0.952123412170787,-0.10846370023886386,2.172982566581886,-1.9138122757711014,-1.6430560521678783,0.83350261481266552,-0.49494713059565781,1.251143499867007,1.1634069044414763,0.39816058664906034,0.43533070870107754,1.6418103936228319,-2.0944983923035134,-1.6502232409396047,-1.2288873993135523,0.62223044801321792,1.4398019054147531,-1.5123519654678084,-1.0166805253688804,-1.7094613133410128,-0.20006579176660158,-0.95192909129902281,-1.692540114778355,-0.045554410073197611,0.14388827956607053,-0.4236243849387889,-0.61806566168505328,0.68489725984434746,-0.14263992555328561,1.3438713797734976,0.58981506169704079,1.0487901093410279,-0.94960511714832729,0.56279394368007729,-0.075638072992240346,-0.72609937009758652,0.15023653319198482,-0.042362222628508465,0.15111044436474949,0.016594287584218402,-0.23040140258542074,0.10837514825869994,0.84967131332932322,-0.15800378458120731,0.72044900180224714,1.3325656751715402
