0.014236952648197023,-2.4191120522660032,-1.961251658850145,0.52938903131900006,1.0558975519629237,-1.6261629564560982,-1.4181784340461645,1.0357121983516111,0.17802601973764992,-0.33875123691837367,0.74014217107317115,-0.073571899980100081,0.30108838410415839,1.2386127482592815,-1.0117685960166052,-1.8656149427882791,0.36943829544385193,0.35201427209523656,0.93800524136211161,-0.89241225534994661,1.3338127045022232,-0.48855023563801475,0.1362280046106111,1.0821183193073778,-0.23994480334684121,-0.76297198881374961,0.90974525235030901,-0.74940770033859383,0.50345935075454218,0.81022412731074622,0.35420432399120244,0.15894713785112149,-1.4002264102773947,1.434642026499906,0.015689913412396797,-0.73949337616136313,-2.2497263284568327,0.56774753077221463,0.63391397654564652,-1.9369272759870946,-0.23933452931508065,-0.081512669024274592,-0.71397047155714144,1.1262346855124268,-0.25889777732621921,0.5545862773499951,2.0255258042622377,-1.2221021311896212,0.29863157737764651,1.7632073337315415,0.74324863931951468,2.3614545467119417,0.048898487378666665,0.16354008843237039,0.71431280343798931,-0.44947069791208633,0.67069403995713039,-0.19683562960528453,1.4004370753042483,0.74980460865249099,-0.43649247929122809,-0.46386742155526578,-0.17762991147291898,-0.38961651750919696,-0.57363659876056383,0.70467471997259701,-1.2885353247816618,1.4315072472862258,1.4838973569757079,1.3090427480137035,0.033230773719501047,-0.26834714948966598,-1.2801623259063823,1.2105809994663257,-1.1856884520003841,1.2200545409601979,-0.37572190363688784,0.85641406271997855,-0.71893427100268326,-0.88102626914582582,1.4411735999583375,-1.3783235031222647,-1.3672928447560835,1.2893790239925265,-0.30946821274211078,-0.049424695967690106,0.45951498412768937,-0.32481900427102167,-0.24877858007002737,-0.24749642755282403,-0.33975491581340189,-0.39789840269869936,1.3349384058894616,0.71350452517356611,-0.17068258856937482,-0.90770501981599161,0.16498442105188604,-0.92877226581687689,2.35268497557349,0.50657460883310501,0.57109320150288134,0.87213413105408211,-0.70721217969527372,1.4775308351870684,-0.31009182669626845,2.0146934754818759,0.3167196905753708,1.1523615195054648,1.4001249027480389,-1.8160525467023576,-0.84572057179486571,-0.56734586502550732,0.81161237622698268,-0.068296227313270744,-0.48764318733717321,2.3395711438581901,-0.32370311421503212,1.5718885596724175,0.43947984675695428,0.0098489232039811938,0.3636952818462888,-0.096989131260724462,-0.14100401865219367,0.82828728909846827,-1.0915687013352449,-1.276994520661439,-0.20109405734173227,-0.039963202573726091,-0.71525739241862574,-1.0003620504004656,-1.6457001662586674,-1.4799799542205838,0.82925008832428992,-0.49167118844689717,0.91301672020121338,0.66601146159702873,-1.764599498603864,1.0162081784154429,-1.4380986244901595,-0.92492815751762325,-1.7627117000528929,-1.0968057075695765,-0.017286168525528934,-0.80606199047855664,-0.65432020068540675,0.24734915752519812,-0.35148853799777569,-1.9696605865489227,0.080147708596683201,-0.15846217220887765,-1.1000346255375795,1.0166047564678908,0.68230943735065519,-0.11063230600155187,2.373031891883052,-0.21171246872886637,0.37918722354746487,-1.1808820176454329,-0.75516786412631109,-1.7718804839429663,-0.31058556349311717,-0.86231624026832399,0.7981745039146233,-1.8259081521288421,0.055676596666134233,-1.5468659223426571,0.5192659420255592,1.1310093023082033,-0.74238770506909935,-0.87159062740131765,0.41821722744103967,1.3904442385610889,0.24265323410758569,-1.7234238101834276,0.51053798858534283,-0.72688760536808938,0.065673733907340659,1.1549997082230397,0.75817671832615441,2.2618839909051194,-0.6259689306310352,-0.37457109649103687,1.6696853271522081,1.8059317299174198,-1.1395924681598095,1.3210685869255892,0.86566467860201313,0.80697566059773751,0.20865335515933181,-1.2496158645263116,0.30110565269828615,-0.45884718750513159,1.2290306616756534,2.2695830802213117,-0.83381801748064155,-0.60784680590782969,0.40947223021401263,-0.41114917665423806,-0.59800148469969105,-1.5357440196795955,0.35757031598690242,0.7129544754488325,-0.3152963541034971,-1.9088267622039377,0.20103455168597503,-1.5269729306607807,0.29688878334525443,1.3407141721462164,0.0028749760420481926,1.199307839953782,0.34295920166203608,-2.1674599963177776,0.63157390990344575,-0.29430241512563432,3.0898573633882926,-0.086601700834286088,0.73833796918135797,-1.4341186869432858,-0.44922224533328153,-1.8757954552409082,-1.1252028806635337,-0.4913961966137374,-1.8132263086415696,1.0884330216862586,-0.6184140543158555,-0.16859132477628311,1.0188680132265646,0.0058442557801121047,1.2517276254106662,0.08476191040162305,-1.6201124154739526,-1.2709079363963252,-1.321437249150464,0.35923946811264751,-1.1129839615733763,-0.17071967274149352,0.91739297769299244,-0.061730267936131795,-0.56411751306903957,-0.1580054713645036,-0.42453132974149227,0.36962769213960339,-0.84348682099566297,1.1921676766938312,0.16559335078151541,0.2848069546927075,-1.1265695496818902,-1.173465401880367,0.21586203955088845,2.1807439942102391,0.17062632579222081,-0.68495256469142007,-1.0261534675347399,-0.48929556869704927,-1.6606584540427687,0.243454173287491,-0.91062583129447072,0.055436322142054163,-2.4343631934949017,1.4189298956232792,-0.67954146957785178,-1.0044522273440242,0.45016157403266749,-0.56819664237524881,0.30221483388181436,0.76541046452780903,0.50132562900530364,-0.020273115285102686,0.64203704526382888,2.002566101351825,0.024880795597702173,1.9151326194326357,1.2138329992722341,-0.047894912732780508,-0.25398553657959783,1.643036998698655,0.71181913830853061,1.0642467688835813,1.1043452427270901,0.22213389929112895,1.3797553950161989,0.53145580023232653,-0.2132305853479172,0.78468958247189291,1.0645552019870845,0.6939745298476504,0.33657258837542087,0.4439404299350217,-1.5549796599239221,1.3072743879132738,0.22523160795131947,-0.7669409531324568,-1.6504090480402587,0.94279403845268561,-1.2159423702852667,-1.3998481438013335,0.43496327375068372,-1.0130467832012982,0.77759614041643965,-0.47595945273025231,0.15825287287807371,-0.41725005469519438,-0.52782457001647443,0.015466324890606094,-0.36432170503739825,-0.8043609160237416,1.78806020366639,-1.5463249684199745,0.70749521014685501,-0.56354997048170596,-1.7394588967128892,-1.7850643080858322,-0.47827330360223885,2.3421439635685339,0.51122215296238227,0.064594707459179626,1.0452521126118675,2.370891123865821,1.0605084105780567,0.038469539850038828,0.7832442655006604,0.56705681080218218,0.33928911778271087,1.3471669571909051,1.5653968601928472,0.052092495837117718,0.011638694820527814,-0.28065310457418774,-0.21697442692182237,-0.72733924157949459,1.3248092778226221,0.23810411711132148,-1.6093832909213279,-0.38735731449742022,0.43500482199432505,0.86845836807876708,-0.96466967847367613,0.40838135927665142,0.060114087858081394,0.25641104028255396,-0.065180562400611208,-0.62144784180756674,-0.34495212837549383,0.12583812850557829,-0.16248872398212527,1.0392642622030361,-1.0483806250102436,-1.0839226590997635,0.57566784231172929,-0.79267493958575896,-1.4176095481224706,-1.4534854208556545,0.22348246762354551,0.79598641113782675,0.41781344758408978,-2.0695996885615067,-0.39605981887287378,-1.5374545879402637,-0.1702636844216299,0.77462460701717295,0.30975922518769977,-0.45506307749885044,1.0452910135003084,0.70592942352502364,-0.69939891640161023,-0.75105429724643358,-0.23475248123366838,2.0741803411356572,2.8418266414659179,-0.51850996773833924,1.2599754275645512,-0.80643707953204646,-0.59876368288339665,0.044754035715974014,1.6549342028728395,-0.12563797368966168,1.1325461461120301,-0.14198398382259117,-1.2718683277383924,0.021050787752894172,-1.1588855920153041,2.7051046809408281,0.66747098346462419,0.44705701779243279,0.52400535723208785,0.19147169299431646,-0.82290879490473701,0.39143766132900498,1.1168991672662221,-0.33125590799051197,1.4760936220286265,-0.8856127341797021,-0.092047431904599519,-1.0000878045079213,-0.47143557676465742,0.38600422266811396,-2.5778753637680358,-1.3895082068078508,0.22426455696651831,1.8648557518540811,-0.053101735458655645,0.28140142086385728,-0.82015019184770921,-1.2861756487899287,0.38006626059304216,1.8091822404738802,0.53892924288587696,-1.4239952290872506,-0.71256453714666557,-1.0839232062049255,0.92347240708807032,-1.3779441715230805,0.10752096510838208,-0.63160631942574585,-0.85479228110235861,0.051413101371950244,-1.9145629678347307,0.10794408502277812,-0.44368622182860823,0.29507898755557455,-0.93072166120831146,1.6226705257619449,-0.15171437336213392,-0.036625924066794283,-0.17882636226024878,-0.9774548212991252,-0.4204790971872408,1.9603237165624241,0.16852276725856141,-0.12289708092222806,0.35778952962398181,-0.69889288274069683,-0.44536538187205865,1.1846704653687339,0.063571581918412043,0.36190893400653912,-0.59106376355190771,-0.24108587984140301,-1.6520060523225522,0.30439087030557438,1.255415378405911,1.6081142159486255,-0.0092738273377115342,-0.70591864593198694,0.80233896715469211,0.58432538891186392,0.14853840610263816,0.045732821339281492,1.0952313431644418,0.42480387234243938,0.37260792412343652,0.070910713443791032,0.55678458741934911,0.20664413025705886,-1.4205039847103726,1.7370962302234216,-0.85014483883541847,-0.48179598488916225,-1.0280883545425912,-1.16118593662883,-1.4128688830237914,1.1243828543150525,0.42272612824807437,0.21078275410197525,0.39967333908623798,0.69062252976018712,0.61595501293826915,0.048425384716598754,1.5332284550907358,-1.2556243384024537,-0.62668988720541829,-0.27100198554022403,-0.30376783624924447,-0.39113958734968901,1.0321012538035499,0.91484458529986135,-1.8137297509879298,-1.3731886219591403,0.0060888714788673486,0.30159164219606799,-0.14908511409037906,0.64135755757443336,0.25650763179600761,0.14235128545410569,-1.3707661328251701,1.0959724092208518,0.49883447461244634,0.030147002652790734,-1.0896278716056653,-0.51876690649427371,1.1367570560272797,-0.69580655343536957,-0.51101066296250652,-1.3541160599827944,-0.68257612315767768,-0.16110483414485741,-1.2449957592036769,0.24456223579543793,0.33188006895614797,0.92163914350391507,-1.2742962199554655,0.10274924784398486,0.30694204841375727,-0.8533217265239047,1.3069725582667011,0.98316822941429771,-0.64305729998702754,1.1153800482799194,-0.5630553435703578,0.26830469468797208,-0.23097319672910754,0.74075574368017039,1.7745550201592954,-1.4490802544204069,0.14842432309936271,-0.68007403323152893,-1.0506893164220557,0.70786775287661263,1.4234548839282581,-0.74001997616343684,1.2209099208423309,0.63098430201837474,-1.5565716946231527,-0.64155049902101646,-2.5128320236562747,2.5718030928955815,-0.56247591362355909,-1.2281422972743758,1.7618235208628128,1.8196589496166939,1.4122350119848228,1.434395512107109,1.0537671527225194,-0.9057201903542369,-0.85941265916020571,1.0493209682325371,-0.19515840870508247,0.14148559750230433,-1.5924042700411218,0.49595262271660995,1.060676706760415,-0.10266609188413682,0.96472417562722879,-0.7022860798675582,0.39126149163295787,-0.38388933662966646,1.9794756614200137,-0.24641762568866982,0.20769405647298264,0.50154097517514418,-0.79295935408821705,-0.046993335585489945,0.51598354968283378,1.1628375029744364,-2.19638490279947,-0.67686332422235262,0.1512960385234961,1.5005032456975029,-0.90202461918618659,0.60925009122310414,0.82724179928607622,-0.47626431374927125,-0.3003496718082172,-0.78751409236546566,0.24230280802239959,-0.70830932494997445,1.1198144714464955,-1.2666550233193541,0.55881276651826839,-0.49533455503674834,-1.4264999804801315,0.63151092475175785,-0.22935951511396671,0.90425160372233548,0.43112253589414834,1.4809496570580036,-0.73426116424633991,0.30152999351910925,-2.7599841227436093,-0.37614857205090352,1.1163713434048452,0.75889260411703452,-2.2305759045779245,-1.1408248705994204,0.42332376692146056,-0.50925453073952676,0.49590050189076312,-1.0397503328372284,1.3276230633284083,-1.9207807825768157,-0.60056013802917652,1.8019655564149,0.64886073998995764,-0.41685136227237579,0.35982086632802884,-0.051422237579706778,-0.032721969922114173,0.83167694675266868,0.34813837831774591,0.3347112158494534,0.72810143384840309,-2.2844361348058393,0.15299978801793196,0.85705493167368818,0.21465733090888406,-0.25812390013702502,0.89398224209361243,1.5511123140073582,0.44026602849991503,1.9550990163636173,1.6642100387553571,-1.5042136100372407,1.5041769083349588,-1.0625649553933019,0.067954067576564275,0.36141456138905742,-0.042057527221666814,1.772279049941867,-1.3264715489192807,-0.34832875788646767,-0.95891636305947603,1.1866327327635913,1.0832383825860148,0.93967263586817895,-0.35122815040120586,-0.48275942600131166,1.4029099483158713,1.00746113194638,0.13574163615678844,-0.3667049436597527,-1.5433648784112739,-2.4468196032248062,0.1648391308864367,0.1423852733547635,-0.77041292493741775,0.69595942916461639,0.27221735939395675,0.23558134214862692,-0.27939910853037125,1.5520431681563078,-2.0432976399899938,-0.37628529068990496,0.0019098257322665785,-0.78386698053162174,0.17403748902314417,0.83781750406308486,-0.015009794711602176,-0.26881588171536891,0.51842662520772087,0.32325855377996776,0.12282231878201774,-1.2692778018309763,0.34447588306854332,1.2509991962326301,0.52705044503991594,0.78103239851710071,-1.0097831518813116,-0.75364400480265548,0.13372185159358829,1.3732835852766199,2.4538136550604266,1.2893758069865304,1.3494126090650185,0.92988777731718408,-0.07399479783809837,-0.57661276726603006,0.70643034025702411,-0.65167610455273928,0.36260792629330657,-0.72507027134642099,-0.33627548743875602,-1.0790584478247451,0.40613484557107077,1.603915457152272,0.53713722534523478,-1.6340295464208474,-0.64471345844234018,0.85557063826267277,-0.17030440346564502,-1.1390726862422251,1.0256252380976516,1.5455675217123874,-0.4524048170134401,-1.7598731428360799,0.4561433834284172,1.1180427578361498,-0.28328956682203738,0.45555700194906185,-1.3302887169973576,-0.33921077583080228,-0.22609516528250553,-0.93817130751646804,1.7446213739511429,1.0341958696115157,-2.9867007661256086,0.47256407870644057,0.78815554576151525,-2.8016651844330003,0.95390536617738975,-0.79403741491175084,-0.96317332578348702,-0.70738116685928476,1.558261318126791,1.3541136350363505,0.73696294608977619,-0.13971114849485647,0.44797320834638144,1.4434979245464874,0.45095925007473314,-0.38049127221353551,0.057964034709224031,-0.24965617556102648,1.0522099578426733,0.8602619560371767,-0.12355832638745654,1.0157941766807084,0.99509203475904195,1.1925691583982811,-0.48902151230386842,0.03965302321203782,0.57811392470323608,-0.39415860845898465,-1.0628071493141882,0.37740015162446972,-0.95634329834576337,-0.37456039280877301,-0.11413304796140854,0.96525323117771811,1.1812546506924912,0.33680459343156732,0.20581360084254513,-0.37415487765792693,0.73877015459717355,-1.6243233799045511,-0.065980111234958033,2.6627263132196406,-0.9675192178200227,0.077983497534891574,-1.1036086505687879,-1.6311977839667811,-0.41504753842593362,0.16009684632028226,1.0634222739937182,-0.54911836166215278,1.1939541188102785,0.032792268136985783,-0.89462577700723034,1.3120958831024301,-0.8302243840895589,0.73646274243728815,1.082583454146663,-0.4297994674672409,-0.833101915631971,0.98787798735201782,0.26475143632222325,0.044779447104039138,-0.38825918438695151,0.82197511149953995,-0.96999204047511234,1.4444026572388557,0.41643608100245771,-0.39330797351387609,-0.20404333919668216,0.60864615628298679,0.055463306253201707,-0.073050835943381742,-0.21446818030656678,0.25636395051051758,1.2336536027465175,2.2407422434483935,0.55793792610176673,-0.19003443661011507,-0.85783381318488028,1.7418570716864834,-1.9727335760673153,-0.40080440312635102,0.071388584808985633,-0.81081439678022571,0.46883607263012927,0.51832533698148742,0.57309680105593219,-1.5953837078409807,0.59212033199787106,-1.7146313635581971,-2.2439107886404064,1.5562787558929607,0.61423131348228466,0.58856801659118008,1.3718999140749701,-0.15015729053078383,-1.006262560182523,0.14190372836433676,-0.52810085826190556,1.7387380929226879,1.30876751317921,-2.5539066169422973,1.4831918737328671,-0.69902875250552743,-1.0546430117994661,0.32937820184208982,0.32355590780443999,0.039276468008367746,0.72837371055466738,0.74100217622319098,1.1600671023640412,1.116777932982721,0.68864431798206505,0.68864705580704055,-1.8589793401990387,-0.24368134934359534,-0.61533588856981591,-0.9531332665203015,0.14904871299869202,0.98477680952846514,1.36269837147119,-0.26128741282480705,-1.4591451556183777,-0.31095347467475842,0.48857118503876423,-1.1118712171917362,0.71441971888338163,1.6864370979530199,-0.70325683938006966,0.38980095049098124,0.92353280920921466,-0.26618350284930659,-0.62328224877409821,-2.4296928503565502,-1.06741413009356,-0.9906230862554104,0.31139589288640918,-0.14214039223790323,-0.89961997181456532,-0.28250228681935063,-1.6885107366882264,-1.0928359059690975,1.0847553559123715,1.6111473737911775,0.7162398035407177,1.354446475691055,0.20261965729721457,-1.351479947021152,1.1112842039063775,-0.6359574387849517,-1.0978481701572138,-0.83169850138682266,-1.834036785559239,-0.36104073461012093,0.068628582823888978,-1.9584895510477023,-1.1071259357139198,0.69615566657626005,-0.29693249895994284,0.071446586208264468,-0.22887397967223114,0.30564932392342203,-0.28210546772243467,2.7852250638905178,-0.059048588899582082,0.78170185716996365,0.70365566485149622,0.15228124816457955,-1.324657904080847,-0.81661025372840446,-0.18562845712935724,0.105990653366936,-0.68764433516701073,0.54213174433503719,-0.65667160372606304,0.3156929341839288,-0.75186358464395386,-0.20659378871058395,-1.7432708961210657,1.4863313361260837,-0.32531503810866136,-0.15784295310909299,1.5637318109500282,0.84949054735244811,-1.1674306634301561,0.05488018537021061,0.59366581199466262,-1.4830123229362515,0.59473081434849717,0.22467792309614459,0.51475505857007287,-0.71309727270931123,-0.30178630912342996,-0.91669247125023068,-0.69056254783397775,0.75667826606130406,1.0986749948632368,0.42689716598687544,-1.0989679474112286,-1.8213626059882868,0.46650914830895329,0.17633548795091109,-1.2252025454800179,-0.86009992559918025,-0.53593801156079102,0.47488913718761838,-2.0466203223699519,-0.94423823245249805,0.42048928906206007,0.92574913364921707,0.37693667889932397,1.1623612983443505,-0.44943415172711376,0.43113190116714539,-0.59668577067458917,0.10068759338149899,0.0039504953627369516,1.1771287204561303,-0.16047111596682337,0.33094133312736784,-1.7635409511168259,-0.66912736556372354,-0.01871512569873026,-0.5967507520275267,-0.32434813815250596,1.0724554112785674,0.40838175821530187,0.52226459603161302,0.082312138778155894,-0.55980256902054326,-1.1383011384729602,-0.28925502677557363,0.85346173037794903,0.58928685790167523,-0.56921028034207677,-0.80390512149178806,-0.26900823231499094,-0.01453432448330215,0.98220869491127005,0.41044941216537473,0.044381171597639976,-1.1761290860941278,0.69979378609916321,1.4888932594654036,-0.23937349825836332,0.27325937497527891,-1.8180920633058011,-0.95368120543184998,1.066203449811401,1.5149507719843271,1.1683616635517533,1.4296086825731342,-2.0272592613442204,0.32948299251461838,-0.064135773031888429,-1.4240264086383245,-1.3049365374304536,-0.87543511387579453,0.79770242055233309,0.084023612477132081,1.1384646423942246,0.88730361780624545,-0.49008592055191502,-0.23377165804494196,0.59029171363407262,1.6066438415702122,2.3093237219741907,-1.5507010922161197,-1.2255892142269464,-0.20214170842345044,1.0620039030056316,1.3555294367251509,-1.515257885377651,-2.335111000713316,3.1888715382758286,-1.3126397435773989,1.0558489530479234,0.77830738639780828,-1.5364280484936681,0.30674287685904883,-1.0481098151382342,1.0169257093839112,0.32064057590527628,1.3633001123554009,0.61366313241718251,-0.59330685543215922,-0.567986003856086,1.0731931121469402,1.0945384536640699,-1.6656623301504101,-0.61241779874802338,-0.12859823447550342,-0.21478974278111646,-0.53686894186825784,-0.48888916314712788,1.3757674834441804,1.3914941349534908,1.2246710789678688,0.21789181438484809,-1.1368471935048492,1.8025762349113539,0.34392548192703981,0.89366370510817383,0.46236160713799451,0.37335369982754912,-2.0647300969187588,0.77973352665517981,0.77086923679237518,-0.98283894256151449,1.0907386824020633,-0.38782816271078197,-0.7518663645185869,-0.34840087826033384,-0.3277994753691022,0.94623901451722836,-1.0111169445016999,-0.10026023325234183,-0.72553373918292852,0.40442104158978598,0.91097138284332213,-0.065875878286454859,0.035221557862968163,0.13028623963621805,-0.48388125168451634,0.19519005585577748,-0.23705687249564386,0.48811027615519359,-0.86115272051140412,-0.10596922501955787,-0.92017790461387372,-0.64105439054859958,-1.0468635221069644,-1.0965745950405767,-0.25333155364489696,-0.74145368846083759,-0.06570563605883184,-0.60051327254148434,-0.73858317401470741,-0.42884723076751513,0.68183784479146758,-1.1359693649675582,0.80211585687122033,0.026962345320862856,0.37215098314686185,-1.7725954054338224,-0.4691318162917768,0.38102947225967843,0.40407316306284913,0.10937303800958156,0.89361109033026054,-0.20667231963447422,1.7386136174272755,-1.2961468901718383,-0.62421847726779334,-1.7004809537889602,-0.33846673913066905,-0.30469781042011679,-0.86931666547040942,0.92558621532898655,1.125928524092644,-0.59439276650796091,-0.33734578586186281,0.13498838252346756,-1.6521490636341987,1.7108866748791458,1.8315441173527112,-1.5735603387641262,-0.22776724877990026,1.6225963109171733,0.51051442935844427,1.2975984794505739,0.73955760475992882,-1.6485725337258652,-0.16284274884302555,1.7483320745664863,-0.14413061147717507,0.35682303502860419,-0.39434167971832684,0.55356426633182465,-0.0061449724912260428,1.4951571276104998,-1.2547432876119684,-1.1446332810592339,0.033431744288983059,-0.0017597155187027386,-0.33515113977030253,0.26866467483708717,-2.4647290042145795,1.8222488616657992,0.19797765897775696,0.75065624036500267,1.2421468334460197,0.48796855448141285,0.00060503519199717117,1.5842897644640264,-0.32715996238083944,-0.90486015719959734,-2.5532628177634562,0.66826975072042349,-1.6074964708622499,-0.48760648145012386,-2.5076464230277389,0.092627291850331278,0.44232349180264413,-0.18999990687517698,0.13317892093239908,-1.5621620693170415,-0.50512067689837592,0.24350539476847105,-0.46508139982124402,0.41816573413538405,0.42718357505684684,0.58236646558186078,-0.30580164616279104,0.72217560406235259,-0.72093321809000488,-1.0427250913623707,-0.0023711341643146396,0.71551690385579747,1.571254337661744,1.1329898860315324,0.96858139149448008,-1.0242679787699358,2.1395493622874073,0.94036441415488214,-1.14911904089923,-2.3784559932618907,0.67495580420158063,-0.70787189664370798,-0.46497002288722189,-0.23831559910953129,-0.1270171453706381,-2.1409239262196142,1.1022114813999753,1.2607395567049455,-0.64370853453130994,0.66296904484711305,0.0029183245802217126,-2.6409290783845614,0.40931975811227594,1.3468558399258672,1.4084105658915291,2.0976932226456415,-1.0723740643504343,-0.041903213959105338,-1.3138360293699125,-0.28558356367520527,-1.2027472531844299,-0.3586497852806908,-0.39481659270970393,0.038860560135127974,0.17066452797663592,-0.33384963912261473,2.2903257376032351,-1.7261296257576955,-1.0726376979384877,1.3383692083723373,1.525259940253747,1.5477543939740805,1.2793502749965193,0.48024364059526281,1.3972745341784552,1.2535127101115431,-0.34177026555564383,-0.91837739137808527,-1.0414124437467125,1.2467422543834463,1.3266166543323552,0.4069344336578764,0.9983845839005594,-1.11546504767153,-1.8409880652447712,0.091256591399279205,-1.2918578842694355,1.941158582351566,-0.69792350150052485,-0.23721620448217548,-0.71185360274169507,-0.3039754140439509,-0.74662974353773015,-0.89803303232133858,-1.0587623423854269,-0.39267761228780529,-0.94886744303650006,0.15294351575856632,-0.75485802514063738,0.043837283581763094,-0.57849648283028965,-1.2047131722882696,-0.62206593457080472,-0.63794894080941922,-0.83083270613807514,0.31859890833327309,1.5199528243107638,1.5554605716963532,-1.4308447863389948,-0.73221413402277968,-1.2899535362597208,0.52291130956733967,0.085321810436449513,0.31287409687804862,1.3925114195346213,1.1667982631785325,-0.97430478924269959,1.4552055200462886,0.097634801491594703,-0.61072308959412258,2.3189459676938626,-0.89939231887997517,0.44345996712511887,-1.208616708385184,0.1401528815039286,0.98705294560330048,0.5273082032785974,0.51393006511979189,-1.0812630095974038,-0.57668672429789591,2.0685149254241004,-1.2023062322913531,-0.30364636450384846,-0.24851605244045519,-0.16869183694272202,-0.65378235036743837,-1.0789231971592796,1.0529560817091022,-0.41130621053257649,-2.1124488079990207,-0.16276942950281056,-0.67135906937297019,-0.2546957820276351,0.89436673079777984,0.31859783813784864,-0.57790214512706306,0.5631427929108721,-1.2568264509498517,-0.52506119703807419,0.88489781776616294,-0.18500274236106626,-0.038662919085822589,-0.82118465005603702,0.29754240229533602,-1.1956267394271218,0.55483468897028221,-0.07976098396432145,-1.0985596074549584,0.43876936449216053,0.68122940712063229,1.3167403343243,-0.81462271203803005,-1.6988381621942474,-0.3468871966292042,-0.50664572201415792,1.4382665636647622,-1.1293359866211214,-1.4610753953018272,-0.72008140317660141,1.279217418885302,0.06862657628922629,-0.056215032227023204,-0.021506110373172183,0.92966258833403559,-0.90962688344652853,-0.074912302776891176,1.2278673356643826,0.28623900267941493,0.42366600486617645,-1.2246480767307379,-0.29016611245411394,-0.1653658637223698,0.50681983179615231,0.39149898357644397,-1.0714723588919752,-0.17407409098171034,-1.7970549592629328,0.28617601754278393,0.84137492728242358,-1.2374019575809676,2.0145763050973278,-1.1709864123626899,0.86313336891685488,1.1387380392327089,0.056561972856054937,-0.099043184782892951,0.8305842033914288,1.3090240026521283,0.085465227052895235,-0.92715854435422063,-1.5027926245829795,-0.95185451278588395,-0.86442696816477493,-0.50260874826870316,-1.1533826677498136,-1.0152179010423708,0.63492194723305306,-0.10095514615053147,1.3196859116483335,0.9626330373006724,-0.46146208876721617,0.49095784271118448,-1.4158290482474756,-0.38314255532722352,-1.0367666932767392,-0.56633741070353538,2.8022749548721042,0.98445418122200068,-0.70231856479389931,-0.70124693951729611,0.37608687327053048,1.8055945809898919,1.8533733032591599,1.5512290671991482,-1.256028493905341,2.3129317996558085,-0.44445918626996739,-0.69618328813977393,-0.60655863794563891,-0.24816114542358522,0.58918713760348007,-0.28058556841818283,-1.6499207281350963,0.47586094152888619,0.24621924585684976,0.9581842574118119,-1.0437286766945739,-1.6830123269264947,0.042838234712266013,-2.2206988109799779,0.025455607820447236,-1.5413523524767196,-1.1446701810653923,0.67536919110803939,-1.4201704885283617,-0.17408894534496458,-0.04830124197068647,1.5653898404560691,0.73485281762415389,-1.3616104921165695,-0.81354034747824955,0.12127699842059679,1.7627026923825893,-0.20811243295688883,-2.0252875986724956,0.098432978789297729,-2.386969050586341,-0.14083458757908771,-0.50148767464796451,0.29966989525296783,0.75441692071959554,-1.0522392428803815,2.6577795256414025,1.5320528970720257,0.0718775717122805,-1.8643987476164701,-1.5973846189006251,0.23125364652287161,0.3625672480434472,-0.076371248683939519,-1.6568472916206078,-0.09481223233648424,1.1044332347708985,0.95243130444575475,0.79766460875329925,-1.5616748284440378,-0.63350126319232725,0.073207513477336325,-0.53310519998197303,1.4966576368138429,0.45698572116684927,0.56880459702037556,-0.97036826517852992,0.080843982028704714,-0.81223540302899466,-0.41533124161613655,0.58844714480071203,0.049387978535407905,-0.28963358169733644,0.65681594687959888,0.20992188425605379,0.99580440592828789,0.21268963687718767,-0.18214268867195235,1.3062710855732689,-1.6409739594853905,0.18911194331923006,0.29249412657394191,0.1994983046556561,0.00069095253517050307,0.3174091078974331,0.6914156356974589,1.1219046059900479,1.9792102826640987,-0.36183312630636755,-0.82611744678822119,-0.19995194778847677,0.76876848821080479,-0.071313059195312209,0.85108717420895874,-0.70928742898024977,0.52029615961409903,2.2142694646487531,0.08671033514949654,0.091280762893261244,0.13692798838982037,-0.44760790567317343,-1.2422333525602194,1.7073328157564063,-0.51252780347775806,-0.33372799519495977,0.71032213771670394,1.0005771081161794,0.28201846397200281,0.67500940769484818,-1.1957160183366597,0.45452630068169425,1.0931636228033981,0.99633062764847302,0.32565447242840595,-0.87284279113571017,-0.37937069350913272,0.036917851533962188,0.70877022010814006,-0.12949503884757008,0.51480063816394872,-0.16056703167490102,-0.87164565855669573,-1.2136051706100879,-0.83375219020810187,0.80735572878654915,0.51862679046936788,-0.0017268269005082839,-2.4577107374109173,0.50707571798455298,-0.84862579448116171,-0.29697157116498391,-0.1400914248876686,-1.0933239804324604,0.3108566112546936,-0.061902081139604756,0.0077948967906450528,2.1297897507339223,0.8227242546504977,-1.9216611171047764,0.20428933763882406,-0.26843197143808789,-1.57782052623784,0.89251434073936042,0.53133217741852845,0.50172110935388847,1.3923519429659619,1.2910031355228773,0.67488337476999705,0.71139665816254583,-1.5137669923626058,0.14673153140270764,-0.79887607954326656,-1.8294542790267774,-1.400535360210015,0.26184685978778843,-0.90845023410513182,0.34372843004694159,-0.66615918327664192,-0.99831780454537145,0.82250878019655793,1.1349536414939976,1.6522189534016511,0.2547764338882883,-0.440506856543188,-1.4592355568399331,-1.9427313528887942,1.3897976318258884,1.1089137516245058,-0.76273962393887462,-0.52412652131448467,2.1518664845703399,-0.090481035437229615,-0.46367420338520238,1.7773593949761097,-1.4114626889250306,0.29835333874894282,-0.02372801898884928,-0.93211835934091347,-0.10053359326703357,-0.63565370205502647,-1.5191847537255649,0.34661441065521714,-0.53924130200001308,-0.8665217085948943,-0.79034458191978874,1.0798526096705661,-0.20383246558641571,-0.19293354093007747,-1.1338720500504573,-0.69978268922018427,0.27535812366328066,-0.50243177738414468,1.969038691589992,-0.135726913304903,0.908376229080744,-0.089760598261476393,-0.13226648359794224,-0.14922753098892788,0.30147145617582671,-1.7716420352242135,-1.0545964231911025,-0.2339149974410423,0.52665874641851429,-0.27773903362514185,-0.43918839084531713,-0.21410236270804672,-0.37841870965184599,-0.3095781352775257,0.1819029684758576,2.798517501149647,0.63930391879228976,1.1704432541944576,0.59206774688244102,-1.1531169401784711,0.79248477021677977,-0.57385350645398303,0.82908691573770621,0.24756628418000456,-0.089249805142298008,2.5880355089458482,-0.036905761774020732,-0.017238029994814909,-1.8617166417485023,-1.2108926182429356,-0.82163236184843691,1.4501004387202432,-1.1470108242648451,1.3855574829695565,-1.8574382395687166,0.03136532218206492,-0.81430424040656002,-0.17660679691763501,-0.16180917622795801,-0.11582597243377007,-1.016499374940703,-1.2568953147092774,-1.1848980129785298,0.74197138028108778,-0.60972388736301297,-0.28923825367602329,-0.37928108122447846,1.1958234365465987,0.17324069136027878,0.28535672143885421,0.85771502807086308,0.3151993241101797,-1.2101801301562882,0.4665384151555127,0.13971730600390758,-0.83111156412932319,1.2882939372612949,0.41209463695569687,1.3899147706979202,-0.10774117276329634,0.30267172244440149,-1.0370225380111413,-1.1918382073428027,1.5251486260808944,-0.97682256897371278,-0.038516504805124835,-0.067869972568520717,0.67677737957464668,-2.6675907495709286,0.29112349081178857,-0.51875535062996303,0.10273461492151198,1.4592426675897403,1.4501759422399512,2.1575583142293557,-0.82925660361638487,1.8140504983622188,1.1823412610978736,0.15804858506139718,0.35556415253745161,-0.54029091710789379,-1.0959077597872264,-0.018307885804744253,-0.04070364764932765,0.96209486876667527,1.6358977426395287,1.4036858923650839,0.087809852649392561,0.51050981218503333,-0.72141466371986807,-0.09562470788179607,0.59012797303462883,0.13635762459307041,0.51372825495742247,1.4909069689960148,0.78880664202378881,0.8045364253253271,-1.1402501464801624,0.6408586551316795,0.1269150823360326,-0.62581866597793578,-0.95365275000794125,-0.51707640654339493,0.92475286137439583,0.33251115967107875,1.1626252156224541,0.17330253766184406,-1.0058179758213506,-0.34483848610039147,1.1439340651077858,-0.91567193712438888,-1.0210161612191824,-2.0051435375181526,1.7847469404065195,0.44678828817706795,-0.0023004903439571124,-0.70264863769513308,0.54916073341487981,-0.90383086231002319,-1.0196448482421898,0.46458420524834199,0.23844596735158302,-1.3475658615339732,-1.8995337806673536,0.022619086172764619,-1.1488846367688061,-0.48698297002929164,2.2280627904903136,-1.3333111924889263,-2.2893150690654052,0.072718649189395537,-0.48480633603748163,0.71092064343479344,-0.38963203631651716,-1.9819043797819633,-0.67583112950191326,-1.6132634135299937,-0.30907209212401932,0.75478371824820623,0.5727049635865602,1.1396969537670476,-1.6521199311852408,0.27880532867024604,-0.073807010630545899,0.78101004690535136,0.39642408839753929,-0.64396380284070276,0.9777280519925784,-1.7481512043304117,-0.05669581010442816,-0.30771723205269419,-1.945754960595969,-0.13009593517691614,0.24129562139816751,-0.33832253389972128,-0.17821657099787661,-0.96810913583684177,-0.68660049039585824,-1.6125145960017087,0.33828811635693756,-0.25422547645432958,0.65827013596926287,0.4042487746889219,-0.74737926720279768,0.11327146137592921,0.34444580554154047,1.2121119912097698,-0.14830444587667105,-0.3012924143694633,1.3878682077772098,1.2396827209671348,0.72546306326752519,1.4711147238301456,-1.2410062804281379,0.25575772593801116,1.5717098805132261,1.026765495084651,0.82374061179133573,-0.26997210430839608,-1.5706107753997391,-0.35394072230500756,-0.8824579794348727,1.152448221370191,-1.6785653804388536,-0.94175971758025478,0.30051460120696039,1.1219232332170179,2.1766403576443651,1.4782620962819377,-0.73017815825262533,-1.9610678992556121,-1.0472469028787901,-1.1459329938403249,0.71463324748317758,-0.67356328670465615,-2.244754795018594,-0.23763089093365308,0.76049578297641796,-1.1976671059147637,-0.12115649842791053,0.70032591975003089,0.63620611077023725,0.058699085245467707,-0.63602675967706612,1.521074254163675,-0.21840856474567458,-0.18982580253350878,-1.2020808594244685,0.68189241078616647,0.9359550268097655,0.79572751244597006,0.82039532562644391,-0.14162748357946509,0.10628021025537998,-0.76249595660742564,-0.08320702023619754,-1.3543089606414807,1.1927462037833025,-0.7244867939568711,-0.59100810757557043,0.70450040328684727,0.76431459743280794,1.1437686760909229,0.42946377935201741,0.37788457340114845,0.69278853182807199,0.062886629830664967,-2.1550166540814097,-0.52259609007957164,0.076167941857985991,-1.0331523222635286,-0.36031871316886299,-0.84825598699317006,0.33109543759997412,0.026127568475474636,0.044204416673077548,1.0453180156288198,0.4920878316136621,-0.039682086983750163,0.68118362125999676,-0.2632512174028096,2.1833927014801606,0.014158838281252563,0.334280222407561,1.3148078911617951,-0.13768389607587608,-0.66356424357129118,-1.9071888478034544,1.1218507469209955,-0.18662210914968042,0.41049199160510064,-1.8978589226849316,-1.2744745472838257,0.65630536199922163,0.41211394517651734,0.19648062814138748,1.9298057009330365,-0.64638321729226911,-0.74854466085105487,1.5299838251649955,0.49602329954238261,0.62013934129463189,2.2117033023552715,-0.52190297382001649,0.35579183339537901,0.46228261951899752,1.2426952516024639,-1.2109434820985652,0.32466997166883005,-1.2845810599591652,-2.0653974675491593,0.050970729457865106,3.1641274176664926,-0.6868897786158612,0.89982639241922513,0.7041613871016712,-1.4056662101155006,-0.18953549481886123,1.1101091244734917,0.76204565178193706,1.0174557870541381,-0.022554975510440087,-0.85493562958593039,0.66694224132397617,1.3487472878893021,0.064455521707829047,-2.8989430881513232,1.8256801589377032,-0.23463706852203717,-1.6306896428963238,-0.81583697583208037,1.0831801147417366,0.19273182422213669,0.91133208061227233,0.021735617398338968,0.081297187819764749,-0.41006860812376672,2.8122617619967274,0.079950187389110305,1.2425427296647411,-0.93105662748973106,-0.90524719754880023,-0.99310440069969652,-0.47109535994632051,0.55679251648118744,-1.0867530893215378,0.89434568185787078,-1.1659248373300353,-0.40677092196630016,1.0608103974698773,0.64954798692600912,0.14524290750641172,0.016648103445450022,0.06557846882999474,0.22092188424122522,-0.69876355852924843,0.59918046122807278,-1.1963686144820505,0.52354888156765222,-0.48534241638072961,-0.18270002105753197,1.0988637582612408,-0.82770813633670293,1.1891484193395359,-0.35291077804777077,-0.85142068128911108,1.310001337190861,1.6812562382805403,-0.97212803968959327,-0.9913131934899273,0.20485091273241895,-1.0320092576535975,0.32510507242884168,-0.79483611684837074,-0.033521570125422645,-0.4223214175425804,0.31009637200042212,1.4630787605859266,-2.0443764541063345,1.1265631777742764,0.98756142550066062,1.2255319041479762,0.42744396665513246,-0.77016868770072289,2.1105001464002906,1.3341332519303064,-0.35831539392992584,-0.67659963345513474,-0.16646024122183548,0.8529013727240109,-0.54616720475734226,-0.46064310740613684,0.77012770089875537,-1.2688083253501856,0.91127152814776058,-0.8476866853503976,-0.085944507390361122,-0.032890875136797691,-0.69047472161570878,-0.66357899968929179,0.93641997128457133,-1.5279398679484251,1.4148051892086657,-1.7285052522154836,-1.0083998400799199,1.2942131998713635,0.16144089417631641,-1.0386197041009699,0.59106749543908144,1.2852052559217437,-0.24888029141963472,-0.36600443202808863,-2.0225783828558153,0.31616735586975542,0.80237328655274165,-1.1075107525869483,0.064843008793969703,1.4427619825760538,0.79363675883555551,0.27038715643260802,0.043456153612416379,0.74002532246920938,-1.0736083008971442,-0.13192598355828972,0.7752043860707738,-0.63506191403077017,-0.18072408813685073,0.76576844028960722,-1.4808367436194489,0.86796202362546171,-0.66426050267972458,0.81325612589487672,-1.2954932897731082,-0.04067888134552021,0.43295677346206418,-0.43556874915638538,0.46317777758686446,0.76805870119859487,1.1111170857130599,0.95953808270098195,0.22872161642676672,1.754544821839126,-0.82646555967408464,-0.43564315867478431,0.045906511668466508,-0.62074253757574116,0.014406840850701739,-1.4172417926379748,-2.1032623084036155,0.97737938567642535,0.34638822476931252,0.83260392067081135,0.63025893765496865,-1.412765141449462,1.1642972232834763,-1.0235775502138325,-0.60577226449899757,1.320537282781834,0.09092029614243069,0.61829620454518819,-0.94021517302170121,-0.43731597392470362,0.042504910013165489,0.48621938324165881,0.91538178345916799,1.9159222922651697,1.4417679470397744,1.0799187152223446,0.86873704874179525,-1.612566883822119,-2.6773189620559479,-0.31645231581852229,-0.52811458494046382,-0.15885064430974236,-0.61183536253795856,0.19296610425828589,-0.63394263711445276,-0.46546702956172126,2.8432991258318761,0.05161958821613679,-0.63256479978384073,-0.81440428476754212,1.2296578328276579,-0.79377438456312677,0.52727346651649631,-0.7929198902848591,1.2731129783443871,-0.73630215517615871,-0.60584363902325988,1.1591950329303293,0.69478681856676339,-0.65916300291241059,-0.62607300569993185,0.6839346668435724,-1.6808265116837033,-0.21005601521019479,0.45863998056275029,0.2085290644967962,-0.63484743518564435,-2.2259614649591524,-0.90302341567717082,-0.52815780037164006,2.3086217309532002,-0.78269911051946617,1.7498169724703414,-0.0913526236672242,0.24045622902297561,-1.3881351451688437,0.53260978328975506,0.69970115298997138,-1.3931864055154395,-0.37068713373869255,-0.44479319430289516,0.55223594715830793,-0.27919870813820796,-0.057427513309988798,0.19341056352163077,-0.72339942301112481,-0.34763962689966454,0.29904906428418798,0.80687837714861554,-0.38054313128005052,-0.16795275865861464,-0.093691631748002199,0.99914449055669641,0.33947508514156494,-0.21044606442545505,-1.9510668422956849,1.3808602384110398,-0.10599971911064048,1.0513034336373952,-0.88164826092610349,0.33079988733162646,-0.63910432672935902,-1.0025945874578519,0.30689293204870344,-1.0230628223689928,1.1812241816179869,0.94461972723263876,0.32297684952776212,-1.6973317911676047,-0.92037526637213674,-0.30161846172561019,1.2606480669586728,-0.23277499306526001,1.0645038934020208,-1.0609114224592389,0.51740962147083236,0.95367885675863939,-0.78014952746538258,-0.53834240577237102,0.47680389599093481,0.14312953190394423,0.20823165568627697,0.81259752491755732,0.78441313390915623,0.71418027514865479,0.11319217737016772,-1.3511073944414966,-0.32176842590645038,0.59607774940578284,-1.9562740034387203,0.52159431299404413,-0.23864263775010408,0.5000576985030466,-2.2024939803838186,0.16294494852150848,-0.34573407475092799,-1.0433626765601254,0.78721842154546851,2.1247963529320866,-0.5272701334324531,2.2532322341432423,0.59868275376259172,-0.73375970264774115,-1.3707004248098444,1.8225304633614485,-0.11776090451950855,0.28829566032244408,2.5884309453230427,1.1618840820397309,1.6340589414489146,-1.1211092973174743,-0.54459595377701664,-1.5347223693562044,0.20223357587777405,-0.84209758766781351,-0.47697029585629497,2.1408564127810217,-0.093440572690741242,0.49039253680999129,-0.50926200581472592,0.96754595424631562,-1.3772497036796583,-0.80596646779067049,-0.67466916654088771,-0.23426194731984393,0.87262410378543664,-1.5986856862170151,0.71767193111886096,0.18117190247754106,0.93540356003022596,0.74508820982874979,0.82055765107133249,1.542766099845519,0.56206437436261303,0.50680213295265497,-0.098458000686315161,-0.64147974260559648,0.042701702611066775,1.7038065332728358,-2.3207305974747006,-0.90702219929936401,-0.60619350894281487,0.57281696316123309,1.5364599722472603,-0.29605750985036872,0.099169393759640775,0.73989285464090904,1.7991722916797839,-1.2398698342136985,0.37675150760989629,0.19199327731171212,-0.90102327655500036,0.49307740098305924,-0.3868916610693296,0.76901195526101374,1.2930403230934859,-0.83276701295276356,-0.34016744576784547,-0.17410588403368962,1.1897540186314961,-1.2053188973482336,-0.41037739640471316,0.86224170740802486,-0.28315042760387488,1.0569815503985323,0.93608497114111455,-0.40617052927744079,-0.71135392214436322,0.060055244121964863,-1.7974899394123613,2.4943874675743545,0.86413556894105326,0.90460951045057181,-0.36977626824841064,-0.17084864178851056,1.5894002967691812,1.2083862271232804,0.46586398060493861,0.20763807493101474,-1.0370800072612716,1.8200159774930917,0.79652657309361352,-0.49320635898618592,0.64016556560258397,-0.66091737002301143,2.5307133622827398,-0.21683890885259693,0.71692207837208499,-0.37581614243009004,-3.029954625569395,1.5501924696014262,-0.41758811850815286,-0.28552700762036493,1.0069071627622048,-0.7265868026572444,0.45673896898528421,0.60781580891770381,-0.19340604643546885,-1.3777785926169708,-1.027099124262375,0.60125223625170721,1.0447603699515489,-0.22359101373758167,0.87739609236971461,0.42027198944794941,-0.78757648051694884,0.13078075812130605,0.89630603114614615,-0.060409597882513544,0.15228808298035157,-2.0173102290541682,-1.2307250224429322,-0.26091495967457518,-2.4954652919753326,1.0518070993815716,-0.31468228997204695,0.081826721038965419,-1.9619027276481764,-0.46306269493431601,0.36564398562727807,0.1187306976235772,-1.6428233630537248,1.1302483345588759,1.199879809898053,-2.6533835189291874,-0.40552318441269225,0.31059556447689357,0.72546055114774766,1.6750966887376038,0.90018626423950288,-0.9663053624708805,-1.3316812556608744,0.12209688660403381,1.4418181596574235,0.17099441131941312,1.5160937581406315,0.44271125080485008,0.29250064657020219,0.64331793653018465,-0.15259553279407573,-0.051116600242610652,0.42271068582305998,-1.3805354015388489,-0.25644636527629616,2.3001658333792148,1.147264345989383,1.0270555130067138,0.13076661628695083,0.13492872844578313,0.16217867770199787,1.7028727416105527,0.97758626650342051,-0.94498576186979144,-1.0652412589360825,0.93195823141164669,0.67899662811111172,1.4516353804949775,-0.29043794270939999,-0.65802211195555815,-0.23518749501751679,-0.46155252173688777,-0.99366469339920549,-0.27259408820705455,-0.57298391842086416,-0.40997251689629532,0.5806926454750122,-0.45627954221891698,0.53151272248218606,0.2884065022877092,0.46554264786229926,1.2604014376763191,0.63971605123860797,1.6688490799401765,1.7272039663854371,-0.96287823406327211,-0.99702627523920595,-1.1393910458464225,-0.35129600367684177,-0.38750544641489176,0.54495145557642422,-0.57031473666234156,-2.4866158452587355,1.555523710741084,-0.70784387990645237,1.006675007340508,-0.17546074094135558,-0.035480303240515182,-0.87044101544272678,1.8973507058232473,-0.15531326928891026,-0.27571923333023901,-0.25770379229308032,0.18072521157976773,-0.45287496278899347,1.696482995841784,0.80841433720315092,1.1715250184977239,0.89132387692999326,-0.13918680977681444,-1.493753653329714,0.072089314998649859,-0.01523075761136653,-1.2229633676310974,1.2596808353285593,0.11091945909585767,-0.20619749484961006,0.1659246329191009,-0.018077363295569551,-0.82465972814334998,2.2298574212624636,0.80046521235107193,-1.2275896557776629,0.7078059233986066,0.53385263406985539,0.14176894152361594,-0.62093150420344734,-0.30381956035750163,-0.26204370507215491,1.6336067932508189,-0.60497211052847433,0.49117865429592233,0.99957281648876761,-0.22870923512867913,-0.64699736775890482,-1.0634843854829039,-0.48042795695979712,-0.70723604070526347,0.88886677372566836,0.56918611961259669,-0.99176787364673025,0.3784289324763217,0.8185575381682727,-1.0722000378378169,0.95106900339758371,-2.2185404480502218,0.0764389314521038,1.8791542909844574,-0.88482654814218631,0.014254084466431824,-0.14477757740227717,-0.26503864916421987,-0.77808952438578693,0.13296748499512409,-1.1115692030881621,-0.1940176775355491,0.94740596263092836,-1.6309174440156218,-0.51023376285158428,0.86106771704765006,-0.053096599930893856,0.7173994224493192,-0.56391363182371967,-0.24681458636480891,-0.23923517274641284,0.89926932549285399,0.24738026025780616,-0.58892651075297642,-2.4111075986819621,0.57326587531739959,2.0594647786441405,-0.65100511551074214,-0.5179241796300833,-0.45341869772311721,-0.71191164404057339,-1.6113252585345537,1.3088879640408131,0.58889166396641091,0.48761875097856522,-2.0110134590533457,-0.40676672337098224,1.0662824395229475,-0.28780841636796944,0.36606386118125839,1.3283922449163672,0.66803868083287732,-0.26502523340997447,-1.2781222883190944,0.12653217324236524,-1.3557987729727099,0.25600556434248861,1.9015838749824294,1.7223915891805142,-0.060937534181154406,0.81075339857237494,-0.9153389791653137,-0.85240499510310674,1.9241392372399679,-1.4247629541854223,-0.044866158631338658,-0.4085836143453242,-0.40665023811491507,0.47647985550962674,-0.011118840774523258,0.080543593455745119,1.4514249714753766,0.24872212318544631,-1.1137511663282895,-1.5772616547479223,-0.058000534540669862,-0.03336417682257789,0.85287121225325802,-0.64681980651376669,-0.46710114561051413,-1.1551896527786858,0.80399064034537826,0.011529440868572808,-0.068212677213466147,-0.33358812939304611,0.75927464769998987,-0.57814429714516524,-1.0533708437872675,-0.9713276445142458,0.02957474433268429,-0.54449143345543638,-0.46978317738635067,-1.4058566418475344,-0.21276975748100091,1.0344783296035687,1.1527368178804658,0.10193625282314853,0.2540526053778222,-0.84908254580564757,-1.075250377041425,1.2688847157187608,-1.267875436837008,2.1890071148796042,0.97496538898173157,0.036780618513804812,0.97906487302302048,-0.91893664377046946,-0.33563275427225742,0.39893316056397798,0.024372214715113368,-0.29819653551826841,1.454347378433861,0.36893850640762016,-0.089378213101486748,-1.0026107042833732,1.0946476368968265,-0.34871160197643947,1.1468579106249186,0.4989028956648669,0.39532724211602566,0.52686316794363708,-0.95687911152235594,-0.17317449466468826,-0.4214424788521039,-0.52906663231381534,-1.0185632372654936,1.0562071332493554,0.57115034154457323,-0.90106596705633946,-0.046110822803135165,-0.35431623626874015,-0.58429587747019207,-0.82221668224907274,2.0564368194313403,-1.1504768482619843,-0.73102873191028594,0.46819970869382332,-1.461070633549195,0.24155560393252926,-0.49444785106362976,-0.91092871152070876,0.28674322281876519,0.82874351198289531,0.47083652252841568,1.2890925353633409,-1.7887017133946241,0.99650603280036332,-1.8776303804017127,-0.53945793953247234,-0.94575588407619227,-0.15111918430422364,-0.26530392479449355,-0.13244530645316396,-0.92574395102083651,-1.7904266293971687,0.26967697189411893,-0.55639222021762369,-0.6027629898356206,-0.44138414443783819,-0.56713351582168137,1.6078135813441798,-0.13307158177288261,-0.78638300440351105,-0.07715875697148887,0.047248872943136552,-0.97042022323404653,0.081553078384737354,-0.50977819645690325,0.58126679136105563,0.83781893182421152,1.3768827883119152,0.23335809718744224,-0.89070943260205482,-0.34453794931290888,-0.25009187952024348,-1.2710344662703521,0.52432066468170202,2.0881974232219616,0.53365300064159349,0.79352096492828117,-0.23926153078633969,-0.25569684017322142,-0.96480792873780441,1.0782479989173228,0.50824484208500342,-1.3507633237229875,0.84561639650349407,1.1003064138320227,-0.76795029733752473,-1.2485531394392637,0.081236972007686384,1.1899258075597297,-0.67037150104609244,-0.64049663685006875,1.2028672564458363,-0.75867196308826301,0.69244485474632578,-0.78959775981952529,0.2502778920617445,1.8774048316690468,-1.8338376187569383,0.17783439242363874,-1.0835891463520846,-0.041988302503043098,-1.1947767326516274,-0.49654615515677736,0.49589370844314218,-0.77722440909899682,-0.35758397928013891,-0.5812152561306323,-0.69824617984595683,0.21441498024464808,1.3472794899216358,-0.30984823260861205,0.73169850096982902,-0.74994987870458607,-0.17983036650566614,-0.69460917835328928,0.029005531569959955,1.2019073101356208,1.6220419501533043,0.08034541677540942,0.068606753572499082,-0.35360535737348686,0.5959680780137494,0.91929168685235618,0.10214277357403451,-0.29456634293001271,0.11817630020996657,0.7250858997521612,0.81470804677202913,-0.74378371729448056,0.024321916826662578,-1.0081171566272411,-0.42863470426614531,1.2211419448280596,0.96367462432997897,-0.63349028881928171,1.3805551629313568,2.0449943651792895,-0.60102199079806073,0.74815690959987946,-0.22493942144210891,0.52730845207246868,0.76636224008900944,0.099502505722802753,0.83734465094010702,-0.097389466786449733,1.0075278470562181,0.30830527067945446,0.2085693646556403,1.2539739138431669,-1.171615106024519,0.72084431259955772
0.43537657375277877,0.085432759874839573,-1.4594927866097682,0.79962187406690943,0.64284628779312392,-0.31300593941945637,-0.067928490682559337,-0.42149896262238368,0.056714225055359953,-1.1370394033536984,-0.45748144378557826,1.5589219894476749,-1.3041346349643863,0.30850410963618563,0.13932493327634443,0.80927632021521467,1.0784465545275495,0.55970962129808821,0.50281543450442001,-0.27156838179549253,0.71864781821207757,0.40520222522825605,0.34284885989400948,1.6931478439515655,-0.52794119224480429,0.43667602122966098,0.81986214980683936,0.44618039970739443,-1.2311908607647692,-0.88820350350917465,0.045214174356400932,-1.3952306011796334,-0.081023768434030516,0.7861159189963528,-0.2043902212659657,1.0877758715993502,0.58240827306063792,-0.19156207532581476,-0.41127054057158696,-0.63965218514731492,1.1373857954237492,0.64675723523063677,-0.44306103663147245,-0.51952461829977115,0.73106476418123423,-0.1877008735729781,0.051178172888233307,-1.9429974899256461,-0.15242040598306208,0.28274107796029047,-0.53293031833509596,-0.17832433217776197,-1.3340282248132749,-0.050521218403389301,0.23127105377487514,-0.22226499773031427,0.86499327665081749,-1.030274922797872,-1.1822509448492533,-0.63878818537488302,-1.8625827956608987,1.1574804137606285,-0.67301735399119267,1.7202838218081533,1.4489243205894047,-0.91053598846317285,0.9036221116197678,0.65869916536757911,0.62320898593075158,0.77006293691494576,0.047276273280736067,-0.87875425876424484,0.44667902433999407,0.9379778709247879,1.5702470339240315,-0.020376913084338397,-1.2793622286539126,-1.2360715616154008,-1.1823564082971385,-0.337278054595812,-1.8536880019261432,-1.3957469319936622,-1.4575328779391636,-0.21747731603260773,-1.7721291897698315,-0.35708275379606563,-0.19133415149111238,-0.17791934250629615,1.6828800507103314,1.5557820541752598,0.72788069278246559,-0.28156515203202659,-0.77961508550675696,-0.95616305661308254,-0.71585692258626432,1.7771803607874455,0.088819382225700891,-1.612015807762448,1.0974354753629292,-1.3814777141762276,-1.1085485392093679,1.5984034675290757,-1.8996277630181426,0.052154243366349315,-1.4875563753321244,0.30096564002531706,-0.63930130617366965,-0.83229298732741985,1.2417111107447718,-0.72602642714701837,0.44202904172815893,0.93000991925406951,-0.16361447172376381,0.12644263572793085,-0.65196461666304739,-0.033863274715428493,-0.68431167999773335,1.2169556207077694,-0.97162735749648543,0.76599900041575641,-0.092395694630137665,0.59284528075566112,1.4582577452813719,0.49611148504119251,-1.3263393138396042,-1.0190210751409488,-0.41280994586713271,1.086163442372015,0.10652805830171401,1.2231332646117381,-1.3365081187101471,-0.039949041726821101,1.0039754517715045,-0.92482402957622556,-0.70189275665787321,0.98131129829368735,-0.30757750140984497,-0.64722808233159268,-1.2295236986917675,0.086756213681870933,1.1353374338662974,-0.097819281239338349,-0.07924926753077266,0.33915784068122723,-0.26039425913748399,0.41380785858061758,-0.31471848697692251,0.9893691783972014,-0.73329109145337013,0.94982129374425328,-0.3515341577451821,-1.5842510005015962,0.13038492763006651,0.67289046702613142,-1.0550165500179449,-1.6894450854579852,0.76628562833942715,0.24043668298681806,-2.2688755101871902,-0.21019963503828326,-0.52216111748443084,1.1878197907828156,0.71585052065833987,-1.6455223589505512,-0.70716159516704558,1.5831388193263951,2.0105514078251181,-0.712029094949298,0.77527080762639811,1.2680098747409942,-0.27905635339098989,0.58404181319632209,-0.78090858168860922,0.20101852682386931,-3.4751675446513688,-2.5828563484986273,0.28117232424680555,0.59271874768139743,-0.85443615975720832,-0.97562535931599503,0.68638308829844241,-0.53931751846116793,-1.96177129708127,-1.1359544905730203,1.0460420349198798,0.9841331991953377,0.68814850990674126,-0.5256673383716759,0.71183828064467924,-0.015653460890349753,0.73910536441281871,2.0097701547444466,0.089728785230574162,0.0090435260597479753,0.94546574983145626,0.17192800268312922,-0.81238559977078195,-1.3403502842510353,0.50361786698681577,-1.3413945142936385,-0.75791088248652716,1.0089138049572444,-0.45232652965524461,0.078144671048724107,-1.9406509115017843,1.6460319876059355,-0.22894065423835422,-0.77399242961564441,0.87276018144087308,1.2003871834444539,-0.060488025347190139,-1.2686912379664534,-0.24208599514951559,-0.57541841686833062,-1.5439497324869418,0.49403696161304367,0.13494175536497635,0.31828423263281047,1.5333106777308041,-0.43153567010989258,-0.38360383133906989,1.2384186047203241,-0.1712358025304028,1.1630095570674051,0.86516781957762701,-0.92331266160280923,-2.9192418790519561,-0.35461813880782783,-1.5447410952086689,-1.2706460284783754,0.61832001436282924,-0.34705638818924928,0.93634246884665284,-0.041430951946116519,0.35606850593031136,0.40878381545242776,0.029320148448825169,-0.55806395852435531,-1.0592379419655522,0.78317337313610258,1.0348187600353096,-0.52159134433658361,2.4359341773435617,0.87477911585575918,-1.3362707004134946,0.44643177007664581,-1.0879398321839062,-0.33630594048154488,-0.57422085874371431,-0.00020365157766956348,-0.93567894829819032,-1.2807122115723686,1.5596673089054396,0.49602784748377771,-1.3784435831666104,-0.88458432328696068,0.20130052452405187,0.44553423121560537,0.4521324432985428,1.4940393489152339,-1.3598958599612845,-0.1860927532392441,-0.23341477865966609,0.28554971077119545,-0.82797428153893671,-1.2314771723923954,0.67336001421959246,0.032862763110604529,1.1866183319551804,-0.18978891357709227,-1.1265419119896531,-0.26242902122505368,-1.242041510081084,0.63805645661149402,0.75133072993094574,-0.67102395325881203,-0.99009939106570632,-1.0155503311626068,-0.65282649228496137,-0.3651233544763936,0.59401744708351023,0.8048905565103911,0.15365593470467825,-1.0010890986062244,1.4372070864969204,-0.4725537775317899,0.26216976181446611,0.14842683300372378,-0.15489519099768911,-0.70274363603980072,-0.37962112022199013,0.6594712666030349,0.25092597693590113,-0.1970427158826551,-0.32998216958241749,-1.4200289490923783,-0.9358055614119718,0.71852643336616517,-0.27397642516394932,0.31066832160429636,-0.90702584429463695,-0.99965449658569383,1.0297854036461596,-1.6145032405317539,-0.55817793795197934,0.49480642904658578,0.1504674285979937,0.46126673300793941,-0.63088835085608852,-1.1516024982490258,0.04026021849197154,2.4045385965426505,-0.69639106639747006,-0.30380122330415871,-1.1724612757464496,-0.90919057475595455,-0.34360220421161375,-0.83968880744298702,-0.30813980579602318,0.30227738969868106,-1.4787668055772409,0.0096462011281083435,-0.42372547864081445,0.80601551655536907,-0.12202892582304714,0.55048341859641259,2.1932312311176871,-0.185804914080276,0.51206998486847777,0.87497462794750802,0.66024006150214753,0.93380417978785024,-0.64568557747190791,1.8527416114677902,-0.54090203810858339,0.42264832624388948,-3.1682200453019895,0.90910595387433768,-0.68717806402967796,1.890106067767759,1.4895200114408311,0.49826867608366227,-0.46282715347912118,0.89628746774599333,-2.3860627109868098,-0.0075731117426830015,1.4087140851908329,-1.2216094568255194,0.6018136536624219,1.0012845123005807,0.54508621872064089,1.1931849358352753,-1.0594503698216062,-2.6686435359570133,-0.0063568452991870378,-0.13393796969026081,0.057812455636137579,-0.59454585471755361,1.060579127061017,0.62623641190831203,1.1528504248633169,-0.87461432873290967,1.4861740448395713,-0.42192399030430888,-0.48114134820877535,0.33495557016208133,0.674124559675368,-0.39097896465767285,-1.7566242367639495,-1.535814864056201,-0.95205360695051822,0.77822938154322741,-1.2349355603976186,-0.94168649115772163,1.5887255563661142,0.89889549992951945,-0.47562897391683578,0.71366348289060477,0.53360876372180899,-0.3190622450660317,-1.1142363667476782,-0.90663138899744422,-1.7773743413541723,-1.6869995077049238,0.45690515291468226,3.1486626670434403,-0.30822940334934046,1.1846045216119183,-0.097533497684588341,0.62509489789149086,1.9457024285605036,-0.24223367894514131,0.65178207268772326,0.034147876836150316,0.037817122822849325,-0.63316915250069039,-1.0319052010587193,1.9559595716763132,0.82971725867002344,-0.63239445530748051,-1.2268976686870232,0.55296226333731091,-0.89484428029688801,-0.045161255107734485,-1.8370468253130248,0.66473231089762974,-1.2046595813739509,0.60317701545252689,1.4395501804383191,-0.15686500140646203,-0.54215996665510857,-0.82944548328457612,-2.8595763406302321,0.49197177485967386,-2.0246057258854719,-0.92117104206916967,0.85694485914569352,-1.0403040626415834,-0.23765711888240834,1.0621098754665976,0.65596736334487027,0.42063963464950993,-0.2672852623262843,2.1494788612283613,-0.820061765733203,0.15789982860500887,0.67020835349384789,-0.19187903200017525,1.7460741439940095,-0.74536538287263965,-0.18470441384349418,-0.31854898526810915,2.3679649635765916,1.4918519470035079,-0.38670822329683741,0.42927433405588827,-0.34153458704070405,1.3568848333138896,0.71907289595366997,-2.1210683870723153,0.11866991134002253,1.7907293106717963,1.4922450448054585,1.1948322521997732,-0.13939002311793905,0.81713392680479924,0.33888058642454133,-3.6960056618717609,0.45303008059495264,-2.0769826359895198,-1.4193403928791657,-0.34565566129863523,0.32774688503046678,-1.8117297602457041,-0.40432343018133132,2.3183134646134915,0.042086339138354835,-0.10867837265131547,-0.08697950910459433,-1.2396701110366519,1.0135424149725611,0.26756473419435894,0.13532086557736525,-0.96947289895774036,-1.5809817827356467,-0.62667914435513428,-2.0443945171320848,0.45390295579369278,-0.43069543858184628,0.55118406337320824,0.35919228067792702,0.3807009376107155,-0.84409677297880914,0.97226887793865668,-0.39041909554193283,-0.40780019876320828,0.90022512975548419,-1.1798970580520909,0.22961308600777564,-1.0338732169681089,-1.5255478288644158,0.76229670597286969,-0.37240425002941152,-1.2279296629408831,0.72081176907441624,0.86838591167735346,1.4148613428654306,0.27274062085457251,-2.0247029694471914,-1.4427997350367245,0.73652755760956501,-0.19334375302273091,0.16472345576587105,0.17450294149638904,0.61971880565222459,-0.46218677977078071,-0.20146511130945818,-0.55806980331021283,-0.046756563450420098,-1.9459306138953683,-0.71316760455750494,0.90857505991863485,-0.70198362410528703,1.3752624853821251,-0.043552915540053673,1.9423395767418532,-0.30185848846930652,0.13932148121353535,-0.89260916763113174,-0.87923481784271107,0.52655065887086105,-1.4236554338487191,-0.17728201083558928,1.3542191592471597,-1.3777852639960071,-0.25848210049426124,-0.30265173671894896,-1.5928629738545548,1.246116636509301,1.1251003361652159,0.5608161429973908,1.7220568980061735,-0.42964586418662565,-0.42104804074039204,0.071855973216193761,0.35257134352686403,0.98599335807311739,-1.0524033123440544,-0.91600147919650399,0.34814621453789407,0.76147612017382993,-2.2755838268148381,-1.308602070671077,0.0087220089405227064,0.98746842765127973,0.43473145301519911,0.44955306096958764,0.38298409714002141,-0.24871072005110018,-0.23402916618443603,-0.38820715711603865,-0.97890199000116163,0.59917324417824347,0.10608358664939076,2.1285102570743453,0.17345259690055631,0.53380529039031588,-0.87082717274116372,0.20745680881053777,-1.132453057365044,-0.32402744121758648,-0.59416068110362119,0.99628930796173165,1.3773142135221661,0.22733611629685208,-0.10787887833839584,-0.29735416593394776,-1.2843202764406407,-2.0909313644497942,-1.3341866262969724,-0.34990234617157129,1.2643062921832584,-0.11482581240191694,0.82124460454757375,-0.41203152572702129,0.1138671774539103,-0.97328480022105901,1.2663197400102069,0.014432211063997826,-1.4387740218405098,-1.8950863943718637,-0.54321566309329916,-2.1026502445114419,0.024893599797352998,-0.85815638820185614,-1.0585968456734705,0.10347270883334808,-0.71984008976039593,1.8884291717089055,-0.46980317538851785,-0.56606773271868549,2.1270490118859557,0.71706575171082598,-1.1309004246507643,1.3209189124262746,2.0458226090338782,-0.19155289468595771,-0.79696101885169157,-0.13029380557175915,-0.2250813349083797,2.4739749443830927,0.73616975926165695,0.9960825693394626,-0.4060236470929296,-0.32061886644517018,-0.79910044826452398,0.34856945590382016,0.44789529497403174,-0.13301513351186853,-0.3407319021368781,0.47976035636135078,-0.34908030917703614,0.20948324113926728,0.22084566670667707,0.61112844571512515,-0.19659996950683167,-1.5839893665634761,0.031748351324573834,0.89349779233562432,-1.0103852391796395,-0.31202683854972907,1.4131443227905554,-0.80335221260772238,-0.48107954048274704,-1.0806298612445535,-1.9809676725782888,-0.40301572630582477,0.4212118363050808,-1.3721606454658966,1.6727026551531134,-0.63713202481879672,-0.43397965967203922,-1.2188768767142484,1.2098531769441208,-1.364757225805997,1.2151103729170962,-0.47216338556260723,0.96354816058853643,-1.3278497518819534,0.083878142120554694,2.2658613649998283,0.10640924465676496,-0.41822312449240873,-1.3380853537751698,0.50597823029297606,1.2700909220097578,0.51783184864956244,1.5004202467732954,0.93090541178458519,-0.15806686069397841,-0.77685745439772425,1.1113668868607156,-0.72647509873626781,2.5389221252136172,-0.13755889864962881,0.067274152150462077,-0.70474762888392739,-2.0560696806075431,-0.93616789535910461,1.2258077107372081,0.049718638154752581,-0.83735825832241573,-0.67502807862300152,-0.4369865446004248,1.9618292269820627,-0.15768722632761659,-0.55525022117325151,-0.53199543664716986,-1.0434733678226282,1.5448166766456641,-0.28034058357194147,-0.56366689658487834,-0.20986619599376358,0.92777937067111338,1.6154687543352682,2.2543599236492442,0.37760777979127164,-0.14692928926251606,2.5044837510948561,0.83821763385205517,0.016932759407238932,1.1636185680218436,-0.68692730588892625,0.28992166262650865,0.74639515234166387,1.0890097890010029,0.31499572674920762,0.33315318758893203,0.39384909511422955,0.3151322193995329,0.089637289365612147,-1.7221878503075201,1.4700091873713417,-1.5504871975620111,-0.25240155145630011,1.0822126632926452,0.62310918086342182,-0.096190483627858328,-0.26585365154170298,2.3530602796668019,-0.14676738303363587,-0.47958406076300936,-0.98890983787266273,-0.87586470634392255,0.076624673564120116,1.6608034177459068,0.28581795506496577,1.5648317966519369,0.87758761587548995,0.23172685453083763,0.49287861701562558,0.88721103676534452,-1.3678375630490969,-0.53233551818974911,0.20974261892390519,2.0804202836480408,-0.81453041671104276,0.01968662504936073,-0.24015700072962989,-0.77495331909352816,-0.6817885376270193,-0.57521714739101937,0.14498355640691696,-0.21935822909645644,-0.043409906837170123,0.19662587678710164,0.17645124119034147,1.8130872126200537,1.9788750289026755,-0.75915138839568463,1.3084638957531776,0.84569999303628995,0.02289844881728376,1.8127895670230494,-0.035781807263818417,-1.9447284427957412,0.86670182980150035,-0.27719020030576913,-1.0324167665065562,0.078848750254042532,1.2286704433728055,-1.1763811567755638,0.68787547227386014,0.47488294970672235,-0.12893595971128044,1.1673373422895084,0.78771891171373953,0.37452551742799939,0.071706042181270566,-0.92035945720180012,-0.71582735383472873,0.88371869347227416,0.23953852001955844,-1.0429445550923071,0.2143169829515601,1.1157776170274492,0.98943106165425343,-0.20427193372514202,-0.72668606632968225,2.6401786506518401,-1.7084712173006971,0.79824833514050664,-1.3450938174593237,-0.24855060325163902,-1.3175200088983334,-0.48887204347519397,0.50137374590101236,0.35330568524764028,-1.5407766428300882,0.5551718274345242,0.14078310157374205,-0.63151816971764074,-0.25054964573851679,2.1954370977973259,-0.91765731973877296,0.40100541814601592,0.18433080809854827,-1.0735931894959685,-0.49536335475403293,-1.3131574453575661,0.45984252667615311,-0.47515913691634731,0.67718677546057815,-0.43419505752563842,-1.4493196211497341,0.048776708089012327,0.60486769353978609,-1.3479454176154133,-0.42933327545992778,-1.790219298692038,-1.3498911159690372,0.88035701438921277,0.95533143002307042,0.89121020170755139,0.49913276968112458,-0.31076090303548481,-2.058645788408771,-1.7046480527148349,0.70933452518912155,0.12914097492164012,0.92270791505820882,1.3673378238834646,1.6253880971816179,-1.1198936948066358,0.62100743092712662,-1.3331727349894809,1.2648148353136393,-1.0755802037886322,-0.083555534791047756,-0.3779033042404627,-0.10949155889530304,1.7334997291668099,-0.043835804475474305,-0.90646527965932144,-0.18567007965094917,-0.049661993520108479,1.1146856652946635,2.3151455233044658,0.022424572606114992,-1.6152026446013725,0.93081267260347811,-1.1502560289391381,-0.40364460993566381,0.59987541080517193,-0.18002286036298629,-0.60926367483988786,-0.11502385290689497,-1.3036247994952441,-0.9516836853918722,0.69520407112821003,0.91861138861588065,-0.89621582450055493,-0.42031126567021504,-0.31818349764709064,1.8814100794430511,1.7538469916646784,-0.74955778297410114,0.97392556597314706,0.46613292943223283,-0.37806950253871746,-0.14412437075991669,0.60822866714375512,1.9231134022199929,-0.44186450792774079,1.6670668147662602,-0.33090971821482495,-0.078520280980162852,0.25788749981638537,0.76034390892216241,0.58474247603046503,1.0747678473206845,-1.0111405731871654,0.033568515872780376,0.83216350856967292,0.57365567848526722,0.66288878720702371,-0.51974086695966004,-0.54441725957757814,-0.6947383264717063,0.067195025077594339,1.8241158208918185,0.80961651130788415,-0.17162322148167591,-1.295927029905696,0.8420238584428803,0.53405514311315483,-1.66435991713617,2.8098223248753995,-1.6709680931801425,1.5992805457203956,-0.80946181575455378,1.2655329838810236,-3.8581317991182433,-0.49294749378607872,-1.0393469224566905,-0.58809611532850758,2.2630034595512325,0.098588781334480013,-0.93581207232454511,-0.91594442446053737,-0.67201833479594364,-0.16517688871858066,0.16774141064350873,-1.2139539541932218,-0.081539076808596872,0.81801058902975154,-0.040228261053711765,-0.79351414073685622,1.0175421662610129,2.0942214041752587,-0.16998861917065614,0.83986361526338638,-0.82744614066906241,0.60990316398381506,0.32792456924223079,1.8007173380732746,-0.52805147427710819,0.60898405204418526,0.30240455355077328,0.61628018655846484,0.094879349301757759,-0.46184228074268385,-0.15657076551056692,0.73218802582655251,0.26734993226112247,-1.2035462409801467,0.58668125441480867,0.22173904716802886,1.2675816992958764,0.26428549033849796,-0.42431628466029359,-1.1391532482376459,-0.55310969314842506,-0.15516635780137858,0.48518709388148556,0.85927774006883773,0.20855869012121775,1.1960177974756023,0.80184435868464854,0.10094299691994837,0.56055310727366658,-2.2534943640624938,0.47265591597231915,-0.68445035813675781,0.32315351501232781,-0.70270809973573789,0.85062723533368878,0.14343966749686732,-0.72742965212374,-1.4260961795357749,-0.45036574568716642,-0.96836631698438536,-1.6876548336708048,-0.70554684489542385,-0.078580901349436807,-0.59594811721016061,-0.041846704067391813,-0.3140164336209601,0.71268404809323316,0.095470169690369075,0.43793401666727977,-1.4679062567573673,-0.47137963694707319,-0.22672395909263268,0.20873112875867988,0.070893106682716783,0.010415624704836665,-0.13983513603596814,-0.62580040919544866,-0.25793951834542811,-0.74614086298768423,-0.61297958585151024,1.2934084104453083,-0.64728617373620845,0.32145775491634077,1.4652098953364079,-0.42984452708131093,0.45235800818814864,-0.9893776191858934,-0.0013373479477493263,-0.89288414087472301,-1.6951059027171103,0.32803006832667508,0.67449118823233511,-1.7688875896580887,-0.74313618282028138,0.74193091104979947,0.15187107513247824,0.88319418077459233,-0.90410583908446529,1.0969472431728522,-1.7136592169006732,-0.48572994613407328,-2.0574714516362862,0.93639394814126653,-1.5063666684956381,-1.4981687992186599,0.099922822790124155,0.44078663436368265,-0.29291108521239623,1.7725329213427801,0.63760638440543183,2.009064069793757,0.62576122614190255,-0.70476262236192411,2.126019163604842,-0.78851748394090104,-0.73517849125489465,-1.5500523565463029,-1.5188315489091011,-1.9329088458041128,0.077617298370634788,-0.21900434875005528,0.47918338314421455,-0.904799489293306,0.13884021916221376,-2.7161124792339968,0.67431458292486535,-0.81350161516391106,-1.2797810858987875,-2.1801140663387404,0.078772988153506612,2.6322369997064787,-1.2377702526360581,-1.0258749633854132,0.49376959976037649,-1.2235533845363877,-0.045165185787440804,-1.0827009167186066,0.39243688800778986,-0.35332887229958804,0.51542629661593109,-0.84998994933589944,0.93753596381695692,-0.74884402724522747,-1.6634401681931126,1.8781800563344753,-0.87641550862907658,-1.0351180415048975,-0.15293390810161872,-0.43362862593133578,-0.32521992424320523,-0.40108692219479269,0.28958355985383727,0.48091532342970705,0.39318458926221961,0.11689242565834651,-0.86668756086995413,-0.89597622203123806,0.5516678358012661,0.10797766948278702,-0.20986079881881614,1.050525168532831,0.80143994386150441,-1.7448270045348038,-0.0090756298139824266,-0.031588829984363208,-1.2137050046046398,-1.1178116743029045,0.46567775235679287,1.6173451077982217,0.35754105700094796,-1.4044221977625273,-2.1637156955467662,0.14169399525787249,1.8308599677282482,0.056804036202760422,0.32369304981337327,0.10788462807298915,1.2616152585316756,-0.48798753212083623,0.77198576311584999,0.32313058696569114,-0.94203139115943801,-0.42033642681975236,-1.6973435127240211,-1.2725579249854413,-0.73554487447821304,-0.23821087421931608,0.93289807446398565,0.54732173846403476,1.0225376785436775,1.4383209685780474,0.064630602923758232,-0.3903233206763857,-1.0441594475561338,-0.33136737277333117,0.0056569721845803299,-0.11558155964085855,0.11150446811039123,0.16416266767473159,-0.1450792982335922,-2.8297961934108202,1.2603747587618837,-1.2105383995272236,-1.1190231023773329,1.5018894038248352,-0.5875679279973377,-1.6688480925897999,-0.91719305050663302,-1.285886257306565,1.1893945377802071,-0.22052359065802746,1.7083463286636749,-0.87493098941783387,-0.77721487034473424,-0.84133987482688988,2.6839336029660452,0.95659550849650477,0.45111411482646818,0.10650786220716306,-0.70745635781467464,-0.52959233094220171,0.51750595298284774,-0.41721129776384736,-0.21812830457964147,-2.381465566611626,-0.36288431351077693,1.2826029810197426,0.64955616376146641,0.11121062585571791,1.3890614738489788,0.97227290928192667,-1.602753320311618,0.67855170843171719,-0.67057304558817421,0.74872052503209041,1.055436172122711,-0.024958504380402185,1.517089440277634,-1.2279865806768249,-0.72255513496380386,-0.56523394088394441,0.50231931444663724,-1.8505378981004066,-0.5778827344094668,-0.29396117309047365,1.2740397978561082,-0.2821101605426577,1.3802620374976333,-0.65408396397086432,0.19119510886136504,-2.1367630002544931,-1.1784507061551366,0.27818714514584691,-1.420392185109902,-0.10237490508618131,-0.33777527354562314,-0.022632400625390296,-1.0583665052543778,-0.2895576831810926,0.93111618620531478,-0.88435348207716025,-0.14843417304270598,0.88897292634457858,1.3778440970062589,0.64521010948147772,1.1576876294868053,2.3086239685878898,-0.66803854241975302,-0.14778791625058058,-2.4222382105731808,0.088474440015858399,1.1446491008828774,0.9755799130090459,0.70283707992074285,0.95141396562631853,-0.21742657255791903,1.0264775183535504,1.2007661190887258,-0.5390648194179547,-2.3239619070396578,1.4473243892001022,-0.9706374490790316,0.31573128561055253,1.2671131570588188,-0.053020323076149879,0.90598643463966733,0.15545383530535842,0.9545410605861725,1.489950885452235,-0.39723182740766932,-0.27673644823251031,-0.50147239127814203,-2.0481882891774932,0.84374023387738262,0.72796273322045191,1.4751277574796526,-0.48793518364146282,0.10129889661397687,-1.0977427543729972,-0.30080733679213723,1.5797400030118873,1.1696092165552301,-0.84646876441371255,-0.35502234506994446,-0.47012106207529131,0.21657505708128438,0.54870737949310089,-1.0408981118697671,-1.166264159865934,1.9700651198931982,0.20887837480048974,-0.030297442213199754,-0.47288009085473232,-1.5837035520785108,-0.91510962066570023,-0.57874077292315029,-2.1935315363901831,1.6522454687086432,0.11541722861462071,-0.72147781004642997,-0.45111192155380908,-0.34544681371479596,0.38231109209792957,-0.17916645242699777,-0.22771734267259328,1.1882955968529245,0.6370077830989348,-0.059473424937752685,2.6097457115516276,0.26169473854215508,0.59343645965902492,1.0553450855111697,1.6428501968907068,-1.0413596467585566,1.1003939649656673,0.37719035288198594,-1.1121942851645308,-0.56816641114620159,-0.56168504243739703,-0.87828330199965943,-1.2886953875702314,1.2799055100373682,0.39559680489624555,0.20992549111812892,-0.71234438675306,0.32920566845103105,-0.96839083093300959,0.83268381021426063,-1.0608824601849238,-0.18786894901828954,-0.70043585167671296,0.33112129339783325,-1.1224857860837534,-0.72433601954469851,-0.67373862952878072,-0.75597292546504968,0.21914045084779221,-0.17152793954534182,0.39126250970898108,0.90307354778519322,-1.4252830930239326,-0.06841983264018954,1.0865928778841121,1.4368784107678778,0.61389328385905484,1.5114874153204962,0.70088811987801003,-1.4087089320330681,-0.58686771020795958,-0.67057855859711868,0.45722558369786864,1.1263548281927165,0.21671564852092276,0.99710638332294632,-1.0596607010885919,-0.013408945115435628,0.077122345254746733,-0.4533046239109576,-0.4175556841734358,-0.83812150276237674,-0.8525630338675978,1.5883797499232082,-0.25396343135695815,0.78623765658325429,0.0010910674561551018,-1.2835673343743337,0.71404782496305896,-0.37208489092683489,0.37609267660230572,0.60309966481666222,-0.20889913437897173,-1.4425388189283959,-1.0250786301822399,-1.3615753482616486,0.65216530672524431,0.68375647432189779,-0.30439409327184747,-0.035405819022165406,1.8719300237457912,-0.36979380055281774,-0.34796808897135756,-0.015166816878472763,-1.2649025289337372,0.90848730812139977,0.73286453994238221,1.8189099522869916,-0.63294705509643556,-0.48356401060916498,0.98883695676961902,-0.57209208749699791,0.025817673450677273,-1.1323422946178441,2.1413670877230007,0.083663807482582703,-0.3481257650224775,0.78594384900519165,1.0575727922326825,0.11003237930672663,-1.1788922508583817,0.81958044296986099,-0.4294395828472537,-0.12228475979180163,-0.75267197964370824,-1.1650609646124306,-1.1048927249972171,0.78715027662792825,0.44467456661811311,-0.29912648366855893,0.36140535105649102,-0.38221263030847424,-1.2793079711423383,1.2450522224973071,0.96282603766869013,0.68490258447437491,-0.91663396879447545,1.6128081736923863,-0.95293764457640417,0.58034261952377764,-0.72370238224005823,1.6287407285092721,0.60934626430895822,-0.25720737957196821,-0.44096140751185614,-1.4726314983625988,1.528870606725615,1.1951658711428708,0.75230226160301072,0.5755927156115076,-0.72300690417752844,-0.80059780832537564,0.26466522371091922,-0.15286728648557332,-0.72784007436990328,1.0916393689184474,0.34076081526093327,1.3411747903268516,-0.60994225243056499,-0.029986167666343919,0.96726830955949661,0.28443528519759798,-1.2000541808614378,0.5496064264707704,1.7862000039305319,-0.35428943414989994,-0.60222916323279652,-0.50897230323886522,-0.78693933045266695,-1.1474098927976519,0.20908733408191221,-0.230437254196876,0.47392339767038921,0.93833991728955268,-0.53924234254288916,0.41302862332876195,-0.049287659123230881,-1.2249803299391466,-0.094538165750086403,-1.7285569871696604,-0.042066942828028628,0.93795441721353523,-1.4893028477388148,-0.15077140431339545,-0.19601792478258118,-1.1688736784907676,-0.96101437705571435,1.6276161609302668,-0.18500661260248216,-1.5084742552904626,0.31885918664763319,-0.70589530490786245,0.37002443326962742,0.44858730375776679,0.11431569079303004,-0.2238383650964707,0.95082975353116206,0.16896154139114664,0.5756234890044919,1.5569816349649288,-0.20353186488869876,-0.6242516196384954,-0.75768108454041905,-0.82771346662607381,1.9534371263952219,-0.04613825437946352,-1.3906439981026155,-0.53903427062229925,0.5662699859002065,-1.8950467462063747,-0.015576892371423482,0.15683535372925164,0.29211395682035124,0.59170743305370554,0.64596691381177151,-0.15645940286519117,0.77660394602566529,-1.8789369514202205,0.5979752888258435,1.4536726041108647,0.29397936495662236,0.70626006885515968,-0.1483761643879038,-0.82114979614081329,-0.83050014162665831,0.083219351995035815,-0.015809330366044649,1.3219303360179528,-1.1470177648592097,-1.7313791143168811,1.8309136859065087,-0.29718002484158368,0.61583926052025306,-1.6713012561884744,0.50214744665776467,-0.78698505697126586,0.57566889188394466,0.67630613296407804,-0.93019812088386533,0.88629648280571149,0.28068494067684008,1.412588414475453,-0.55010303819678952,0.0236513768975227,-1.5152355356846865,-0.20026107067555116,0.6144955413456672,1.5211789476443149,0.3519565909448153,0.64402396579322652,0.40450962052935457,0.20862556928997913,-0.45308793042841572,-1.2712893928585798,1.6798500009701456,1.662256248757682,0.0080433734538605077,-0.45940390399030334,-0.19502010041002571,0.7039818891035402,1.0959016194534081,1.4970387299959662,-0.6630166788211741,2.238872058195664,-0.64092953547415488,-0.0063763448689816947,1.1533313150435414,-0.11617998468588034,0.11717614246070276,0.42468558363646075,0.53251391165263584,0.59595178856438924,0.5856666641274767,1.023999622237612,0.26379448534858663,0.87215888272998254,1.5380929877890057,1.2984042354283014,-0.46630323093161175,-0.68848708890696242,0.40603901266796028,0.61541465312446086,-0.31734529336042977,-1.113451297517305,-0.038536002069773388,-1.1433520120870198,-0.6889273760352026,-0.40973891244662114,-0.08492175941630202,-0.83782741384349291,1.0291100031834812,0.16712351011199039,0.4101358428423964,-0.49687701505720572,0.61409846118222589,0.12734874603997098,0.073439511362879642,-0.37110017229371034,0.70634346774554169,-0.23617220904160197,1.0071465426960324,1.2451528615854124,-1.043516759479802,1.2482788118045578,-2.0802247010536781,0.13671267075002805,0.17619662435890684,1.2230037402146294,-0.69672238339230586,-0.49755100528655571,1.8016289884988614,2.3752010430823556,-0.59528731249643518,0.3009693605871202,-0.78744243169192663,1.0964294489550985,-1.7974201451253917,-0.45343078890992616,0.36256295793594434,-0.89134501026591306,0.62973478507977509,0.083130023896604455,-0.29826793917434902,-0.4543652840835592,1.2879728895996916,1.8544386726029214,-1.721499993804041,-0.067332047184930299,0.038920478977405047,0.017395179874430629,-0.35500788182089521,0.0054221962271534625,-0.10001239503812737,-0.47521617372160857,-1.7516550179194865,0.9194784768206532,0.30823393059002624,-0.23393929617067227,-0.25117615148417755,0.66541785754689353,1.738187368793608,0.81826299739722108,-0.75026231020418666,-0.63425398137563349,-0.019352313147816821,-0.56391078356963475,-0.70357181968430282,2.0286375244947461,0.60227218352615741,-0.26739965129405568,1.290490686865829,-1.0895756784989825,-0.41425634035152747,-0.49816280717487083,-0.53803170879151829,1.9192066591357295,0.13547136216735325,1.3349870500144891,0.20099974511378887,2.059254186878213,0.97074627203300179,0.4723434242737985,-0.62533439376481992,0.90645735584949527,1.0762087494879482,0.75349019176127818,1.7670307390129414,1.851110834345528,0.55075773859474997,0.17522759624845871,-0.63329922003245998,0.3221762272565375,-0.88648940096347772,-0.32132436034801021,0.89311593687345436,1.576518928467499,0.6739557229122779,1.1967712897785321,0.85801824489473111,-0.68040900124295156,-2.3501038804338932,-0.29228488652568768,0.30776983830469318,-0.0504517383880803,-0.62817633229586034,-0.45461043198487977,2.6159647814983482,1.5639060061083832,-1.7283133019452646,0.59830817200784858,-0.75422352858935482,1.2113639256946414,-0.82661952179376585,1.7071712273779109,0.18029066435774246,1.3734551237689381,0.37181440332511789,-1.0698528798422273,-1.0571328051467355,0.56056101997221719,-0.02868467277336887,-0.22328222855820101,-1.3140814459011814,-1.5069994504142854,1.9915997358733213,-0.18952891216920981,-0.94107963964633723,-0.097329081010548102,0.94224056174685988,0.38142660149059604,-0.80467968959070424,0.17821414758215631,0.47837056031688308,-0.6724184213725628,0.6921591553092804,-0.31175253968375971,-0.73806398436207621,-1.3414222107719795,-2.3027993042976491,-0.65477807201635918,0.043340625504148481,0.79570560288833425,-1.5883272925781791,-1.5830897925792169,-0.84923318020571437,-1.9879457091118127,1.3081806537136256,-0.66323547245186543,0.028626967378043905,-1.2221050706786458,0.80784117676001332,0.86467047562137711,0.98812077557454114,-1.9585454540929867,-1.049140401259218,-1.1146540121812909,-1.7743946559481627,0.48388361136387448,-0.7990498257986085,1.1453278198978774,-1.4554674390292248,0.15600545812710817,0.17315257303116241,0.21794696258518959,-1.1139741788527666,-0.29325181969286768,-0.59912877452733848,0.024118085456349848,1.5665231270721625,1.4874837892609039,1.176141758705864,0.57554526860400745,-0.18223272549844763,1.0804359287896248,-1.7633305619833928,0.11780297633488554,0.48294533785145943,-1.4799046219658034,0.24691066950969842,1.2238238515066218,-0.85310923587410636,-1.6639868715233455,-1.0368751572944837,-1.7456715593924852,-1.2318358292947662,-0.19463289672563472,-0.509445126068516,-1.8444850238628212,0.089595316280316278,-0.6312310974017894,-0.19035033022894809,1.3019786494581791,-0.50516554661032675,1.0824139609702301,-0.59412076560705507,0.34911036351046232,-1.9221128825329441,0.21498798623950285,1.2110682209975461,-0.15264028855874348,-0.039444615435218065,-0.68161907639632657,-2.7226145035055196,-2.1977304763380814,-0.047408390780848755,0.42625660187354936,-0.30509690954023627,-0.80561205170421524,-0.73643037351305207,1.3902389638886017,-1.4270172286150886,0.1004729091591888,-0.55271176885064366,0.078405597735205002,0.65493920393205773,2.7837594300398125,-0.1735922726612639,-0.59723398469414768,0.26934023722815498,-0.62091301969948842,0.67608331578640968,0.19281780408557594,1.33069986237966,0.43259001551225867,0.6247250425387153,-0.704663921047608,-0.24326463438058687,1.4539361302747069,-0.46978745379143921,0.44074970561894394,-0.597371857420952,-0.96930572358625344,-0.21371982664414851,0.26775052418468198,-2.7520202709558963,0.32134318813111623,-0.7518400361331613,0.85968109681370963,-0.90376465878382095,-0.06191229762361649,-0.75243430566239566,-0.40058074158641926,-2.3404083920797407,1.1930181109470674,-0.97401535113806181,-0.085709008578419177,1.0014307247479066,-0.86432171136431502,0.83565847738020771,1.1630055798786256,-1.2003536829978376,-0.26218318833565629,-0.10410909828279961,-0.69833311829910094,-0.0085706426438954264,0.54471504916938407,-2.0624392730217487,-1.3232827264285876,-0.50774391365429872,1.6761786197285096,-0.83429655765380084,1.4273493188236419,-0.31680628570530928,-1.0821165891317102,-0.99790780883925778,0.49865796160904879,1.069697879211031,-1.2822676063486118,-0.79442564383598457,0.503946590708655,0.38699059896322185,-1.18239685007333,0.54216588309307101,1.4802485322107219,2.1639937095141497,-0.33145747261875574,-1.9281750772069621,-1.0389457012832786,-0.97821462496411549,-2.103512956434475,0.58566293932915814,1.0442555704027598,0.19333346375602647,0.35750487126681879,0.96391123744546547,-1.1424418776812404,-0.59168769189281778,-1.5338359902949865,-0.87512619153713689,-1.4162264564236882,-1.1788706295538371,-0.38215099707733741,-0.041121498569027942,0.5710914587834498,1.3671091437329423,0.55332407017115681,0.90725626461278774,1.4840101210370564,0.59251012913714196,-0.66821697802328006,0.49658382682198454,0.52587103485620135,-2.2251874827412164,0.9670991538699526,-0.030132354599670386,-0.004710643491981672,-0.57212753706555897,1.3521460907474687,-1.0522001919076467,1.3325441239664439,3.1864909525252489,-0.82986043867850179,-0.83325967386646838,0.66105948896794164,0.019082034575603018,1.7487248785299019,-0.7981186947656459,-0.36655515324824667,1.0848362968161003,0.39519567680680828,1.306934740001291,1.106900960662313,-0.72493714586260405,0.50604934755061382,-0.33434471345353362,-0.48758462914686557,-0.15295047069894857,-1.7165535739881188,1.300105110155044,1.2806476353828533,0.38727454470985906,-2.4872277430182819,0.40224471317603122,0.66491564899816002,0.42975497613559493,0.60545587536504963,1.1837822067128074,-1.2802930961797061,1.0767978338389048,-0.79451802639228875,-0.35132729322105838,2.4984284156867087,0.18772916823540647,-0.84618502954741481,-0.04120618826571637,-1.4509599011067849,0.093771210592584128,-0.54218113330512707,0.51791685689673561,-1.2429923008432884,-0.27308792821229616,-1.1316816513288497,0.21663229678379231,0.29743857571148125,0.82193823603512295,-0.64451392373507321,-2.4218867304931369,-0.017403827790545476,-0.13442619189177002,-0.31305605121291907,0.031354503652252078,-0.40272529947396563,0.23382354781116785,0.41427402554146381,-1.298842090513465,-0.61501512680825277,-2.5473286398823478,0.51484923459331877,-0.00071810113564109185,0.84783311859002108,0.75665777061398753,-0.65205463714388556,-0.14993800219439518,1.9463793264595688,-1.0244757299748017,2.9610825497454858,-1.1877707949598642,1.9554155100538626,-0.29717740746085564,0.4459449349034077,-1.2149140766923712,-1.0920118463102169,-1.9600551242618085,-0.075575378169717572,-0.22369333911009839,0.1935588673358013,-0.32570197610309021,1.8021455246236286,1.6026988973611351,-0.37193488751799741,0.61717579953978352,-1.8529232855971651,-0.99408015819537066,1.1424563667099215,0.16862714828743069,0.53006364826378538,2.8329508468128837,-0.31097874533231451,-1.0994134201399699,1.9732296823291209,0.97020774588036607,-0.91817895996161591,-0.0056484774361596005,0.62126643088377453,-0.27909790761986131,-0.47012803707749895,-0.79699464819455745,0.45145146634183064,-0.73861819291163577,0.12673371241097303,-3.0184475538004798,-1.9472774560200625,-0.9622068642946181,-0.98188919834677646,-0.011925541713991281,-1.1120419020286436,0.46809426759223882,0.13781719326612929,0.086344239276114482,-0.25853103456119758,1.6454754507220308,-1.0026720616956279,-0.14077242096862883,0.41016449052125653,0.13127676334839478,-1.6836284446722365,0.613628549173446,0.83560349450506133,0.42205032398248904,0.4258205846129825,-1.0722833798394202,-1.0078009914836155,0.44407669018802215,-1.5303676059738636,-0.804066742085907,0.78128762723732903,1.3734381021593192,-0.68412564153530808,-0.24725465763496579,-0.72217188675950839,0.62017908392730814,-1.2567215612932392,0.95581011425374363,0.32163753334308182,0.95280088852566547,-0.42186677323626903,-0.79969000942511581,-0.71969338159981489,2.061784692580761,0.45208613477616871,0.98503032376935495,0.30694248439590333,-0.97895004424716625,1.8371244715573505,-1.2902544501600242,-1.2817351248826274,-0.088339951773139455,0.10725485037390395,0.9004818927637136,0.96992753948699528,-1.6974494100176811,0.39262066351319402,0.5545885140818152,-0.076206733282657105,-0.72676218768726875,-1.1259955083382602,-1.2365279258835529,0.052207437531734673,1.6268180114375372,-0.78218121859818635,0.36955131071849651,0.068522470535025248,1.4251209321991438,0.68645206144130044,-0.3808825044908643,1.4151880841264213,-1.6583175774391852,-0.47449144395945425,1.8134954289608234,-0.02096082136310445,-0.9652429042519467,1.0036810619393395,-1.2199966687322792,-0.97462396880572066,-0.77712909022433529,0.90726581281789553,-1.0112719978557931,-2.0385707203603096,1.8367530784742661,-0.37566224624458444,-2.221512902625788,-0.50967901695812301,0.50189926364820425,-0.73569340766446234,0.85023673389214716,-0.10846152395785272,0.74756097795809273,0.67499906090874173,-0.039977471642373308,-0.72159138937811995,-0.71176244606485317,-0.71828975942007234,-0.19843753790092025,0.095965463540136881,0.067132763207208915,1.3005801388688527,0.21351002233005034,-0.032528096574177122,1.0067993574734204,-0.30759964194560008,-0.62345712552765031,0.80613138829419551,1.3430346187054489,0.87084367381585304,1.5378892493642549,2.0025750121561434,0.78624933732095692,-0.40831063194304357,0.87707371030971226,-0.83158547551952977,0.052422200640070415,0.22667188423056089,-1.303053458451904,1.2945049243273921,-0.98065902906154656,0.65445832475395405,-0.30056588539171331,-0.97864365009299759,-0.9723592301020384,0.1035410890502592,1.3684111323786261,0.65012570582783258,-0.39650519019447483,-1.6776647795296866,-1.2255122755929968,-1.7385992537892203,-0.084471173622169951,0.54406961921454589,-0.027956468290820893,-1.073919533539706,-0.98630032352480335,-1.494612011956191,-1.7091174047074649,-1.12563932524314,0.18051979476388805,0.53511971538366321,0.38646771559484849,0.39115399361216252,-0.79705344635396713,-1.4749644748484896,0.3719194900012574,1.0784213178244653,2.6168610958184573,-1.7102071507431773,-0.1790027120278436,-1.5455377773402867,0.71856157458422798,0.21223077634788876,-0.084401656061043426,-0.61735670192794034,-0.23070223732526995,-1.5599827410654015,0.59080291953495778,-1.4082952126341572,-0.8707942022270696,-0.8569982499404567,1.1231564167839521,0.091959043999599657,-0.91633397533676231,-1.31612616698601,-0.20732548728124248,-0.40637436828300061,0.69060234376705665,-2.0566713907943899,1.4608659002598268,-0.58461402463650236,0.10682273336438589,-0.85537101108723779,0.19011589146600849,1.1220516103603235,-2.4654134543994077,1.558950735966808,-0.14456755362019419,2.7994225177773449,-0.71956338712605128,1.3107750597447234,0.51726782735714594,0.63152304654716285,0.013459734424708608,-0.05662356873876364,-0.062636297860922022,-1.3505003417830963,-1.0028681625313975,-0.10246053971062208,0.88184048272655924,-0.028685888151798719,0.015126076557956211,0.28018682220288393,-0.82174570605368846,0.66423637347279652,2.1669376827067679,-1.121167059630473,-0.62500255906400293,2.5143548940966616,0.32128127012118557,1.4085184523319303,-0.48379470789102713,-1.2041919324425545,2.1219089886733435,0.43638199241756442,-0.27986921635335049,-1.9058853595574745,-0.56898184768988747,0.41844842090743911,0.38595626987010107,-0.28584573985746459,0.21122332376837663,-0.11728990815638428,-0.72453061102827365,-0.079556685150367748,2.7058848908778166,-0.1786392946234546,-0.13932323655292711,-1.0292412019516957,0.35799605065783802,-0.78094396184667558,1.30805301844845,-0.44293827639514238,0.35203610049059514,-0.68368150474689482,0.046262759050825886,0.71716373431203151,0.12608989756690708,0.2527042722041864,1.3158405173754628,0.30078353610992781,-0.29945277984491259,-1.9259319736362868,0.20870362126977224,-1.2387885270167676,0.48372329643258399,1.9334389797454221,-0.58256061404747816,0.011794012691988707,-1.7151915853890747,0.47645946711512122,0.10220597103020611,0.35160607641553709,0.60147615003906507,-1.3725544022703207,1.1218420685927106,-0.81127492364995069,0.26798959985324344,0.97066654047751444,2.0313238650439462,1.2767628752198179,0.21992030469979526,0.10934735642831923,0.48666725945307215,1.5400194236951161,1.313331621959626,-1.4771117547763291,-1.2793123682525016,0.49003302027063761,-0.29379757018270403,-0.57815993393845522,-0.28239983871189689,-0.6262109728970443,0.15923395121846093,2.3317686654710834,1.0838499240885131,-0.2593590867552959,0.54800161097510325,-0.1670764125486634,2.2643435599441295,1.3620441484752859,1.4967642640080072,-1.8633919643334169,1.039428240296177,1.1186951192989598,-1.4168835507679451,0.88091422792301266,-0.37994752360614575,0.28316072137836962,2.3091425280476443,-0.34433916991201291,0.6002119390738514,0.65033692661634857,-0.36564374530731597,0.28209793832961633,-2.2208396881135752,-0.75367501835841699,0.47400639685700663,-1.2937131154122428,1.646576941986666,0.30022903284758323,0.5390980101236541,-0.40843787326318742,0.17153421697903515,-0.64688560230106606,-0.24430626994632718,0.71641416800234425,0.55641190434401033,-0.35989576394363598,-0.74782999811204132,1.5177512636152144,0.40302008506343673,-0.96367409623238898,-0.14903918839868144,0.18008759407587399,1.4998138632736204,0.27871555244381363,0.21750660900532134,0.30176104272991661,-1.067997081860266,-0.24460697865433767,0.67674544190791186,0.31239277031032292,-1.6713234713925551,0.41240206878740493,0.45529024025517256,2.2331807356650009,-0.71837796885462801,-1.4403468110455349,-0.059103072569815125,1.2656684760778014,1.5499892377213704,-0.94189348396755912,-0.83089819607864634,-0.87744361133442894,0.36755903759249242,-0.22447114193297196,0.24654093949808345,2.8317010806556802,0.19496505449284324,0.40942999161997146,0.053391895196257734,-0.011171238442395766,0.37361212930367083,0.16129723000901192,-0.55386253599145518,0.12676681299748385,-0.49880875826642329,0.21230152829449947,1.7946280694165946,-0.52075394748393422,-0.23871919176763931,-1.2805281441067589,-0.19525929341952802,0.34713131580198808,-1.0304897983859471,0.47877802840597011,2.2101335303822398,-0.6815339016219768,0.54198318263373468,0.37676941999289132,0.068353329436578902,-0.4159608271967869,-0.0322292454518587,-0.58153332102351285,-0.11703662614606139,-1.40760182207604,-0.27782329185356408,0.9548820442256265,0.10346264016160743,0.653639915014402,-1.3750568265566547,0.43435361547896484,0.58466725898630378,-0.51146198702991486,-0.73183893480057416,-1.3792445534474049,-0.22433358705132414,-0.21223802305687056,-0.90991748159169328,1.1091832934520185,-2.7932089511526255,-0.20186324349649576,-0.55332655179936574,-1.3792600886612796,1.211913737133782,0.97895939803898413,0.79594338043659418,2.0303973411118195,-0.06753288466715851,1.6538777223211769,-0.77772728410105729,0.94874577854394526,-1.2592570241584378,1.6924087509686836,-0.44768353980881931,-0.58965469027117179,1.1048652608831229,-0.091543668616284241,0.54182959573437239,0.55374502733109676,-0.50936761923632645,-0.78928753862534495,-1.0569338049272521,-0.15155906402729333,-0.97141018062269191,-1.0340522270245152,-0.04757714350043505,0.14048931428782302,0.097631067681887077,-0.054910125306757228,1.6511862056342204,0.65882665569291499,0.36585289305133162,0.66702719029054602,0.40737819158851762,0.61929903633277827,0.58747022015934691,-0.36650498626139738,-3.6020638499487085,-0.5591696063211814,-0.77648246670239751,-0.19408409299409743,1.4696897087079284,-0.11205142215630205,-1.8013172120973682,-0.57447963408406277,2.7877870339276276,0.36939305246686804,0.69256427975159185,0.20994376831601716,0.18178482142207175,-0.23213955276596526,2.2028180960917729,-1.2257563105355491,1.1094448709520519,1.1779993432647138,0.51765054278428868,1.3365900764068777,0.46452095835686191,-0.90271694515163015,0.25372119933306408,-1.8332263954206431,-0.39537055882197181,-0.38789741597280608,-1.7627627535027079,-0.060301782636080548,-0.67414587606858301,0.67714857975845089,-1.2291597874771021,-0.67726178751948785,0.55118151341053123,-1.2330776524637166,1.4737148670750972,-0.47599458451257121,-1.2481911439258353,1.2709070839415766,0.33355199353576859,2.5998972711343309,1.3689112585006478,0.28528423337431119,-0.01453779938269787,-1.4026406644771237,-0.75352172250228966,0.0016262021344867375,0.053197869952534102,0.26843178291660275,-1.4587803814608431,-2.1356224571185511,-1.5386129517187757,-1.9736460499340558,-0.74970935722023313,-0.22191582082592598,0.94654388495547848,-0.48678543246890532,-1.6119862521680501,-1.0440944329308728,0.45133814193533328,-0.044348211237067066,0.3020808868168442,-0.52888549571782006,0.18746436577291195,0.29215965498291802,-2.0470566410563071,0.81285625290554719,0.17014735060608419,0.59011961546943847,2.2536787397641609,0.087168719411450296,3.002198128329236,1.7638192236765664,-0.060388533860404561,1.4766404090066403,0.81701472353836879,-1.3205821331797616,-0.8019972718074807,-0.18946678114491436,1.0645178177494776,0.20759377542024263,1.2530553829682685,1.1937174387158223,-1.2416105732885652,-0.13497448016387492,0.7202091244376625,-0.65399174317107867,1.2851412702749816,0.82028499914940856,-0.41027016638695085,-0.36457891259665098,1.7190171105309542,0.3713024786198913,0.24421964513124894,1.1997823647411103,-2.9466114669295678,-1.2272416887814284,0.6275728403840547,-1.9761445339860768,0.64009145501828535,0.16793708557441003,0.54073436663881069,0.096305586640513557,-0.34622523357529972,-0.65762767686985013,-1.2698599320574273,-0.51603947300906117,-0.30718466263972743,0.2931349362030215,-2.6155619482923091,1.287452199643601,0.3805864964998818,-0.81851841583987039,-1.138652250003849,0.17283497659123631,-0.74669261800043296,0.82694373440332647,-1.0003899459309855,-0.62886241811608157,1.3725154729422635,-1.2106462314701134,-2.025566588572461,0.0079890299863272455,0.64353095961328999,-1.2519895811306392,-0.3371698154143164,0.38788913762195054,0.39241360716342727,2.4548411170827675,0.22492041809486252,1.384045361147886,-1.6144930853773616,-0.27683227955537304,0.79715065216186309,2.4513317985269523,-0.75407649669878085,0.061654651246882311,-1.2479095031748824,-1.2110147544445242,0.80983119497383715,-0.33383095084402759,1.4387927840507377,-1.3295912338829161,2.3917554555587626,0.44235183603620559,-0.028627484283810057,0.73293644867389185,-0.8988878969109223,0.90151249560895175,1.5705067722320936,-0.8344876716103381,0.22568041873001241,0.15675856540641764,-2.4297497864355799,-1.0168108123022239,0.083985886619158512,-1.2268026737538387,-1.4515087987508135,-1.054136078657415,0.78415564886383982,0.26015941872970899,-0.42148712815123274,0.07387641470094386,-0.25820101078183921,1.4912029234996904,0.43009869872877138,0.25290882313450297,0.69884258011205169,-0.076132354931805715,-1.176610544904144,-0.51890180559317867,-0.170900505092764,1.3986220997232683,-0.14761024541036721,0.21404795313641806,-0.76453606393761797,-0.61915799649179637,0.2616185656017867,0.23106723208973862,1.7198208741771606,0.55826437348269009,-0.87378147368901493,-0.70362676302189053,-0.73446333728858104,0.16298526622794257,0.29914482391633224,-0.85428515103242997,0.25809325498464186,0.33727356891621185,-1.2033217872204574,0.21874149944217477,0.97914499020350521,0.34533367029969375,0.87850622820129143,-1.4812981180239255,-0.014312838643490226,-1.1526176593746902,-0.11313961053342117,-1.8647558725302851,-0.87391535175536994,-0.18581022099866609,-1.2458018890715405,-0.35376195509133601,-0.55218997034635053,-0.2568541675308475,-1.2606556178005703,1.110864147069099,0.24706639193538127,0.60672829103896364,0.49539409846282445,1.4627257508214064,0.70432323675095077,1.0441692903466162,0.089332239861213081,0.91724357032542791,-0.65525013903811569,-1.3343620255255593,-0.61561097379953955,0.040013506540076849,-0.033073671830561112,-1.3863895980172838,0.85470604294717889,-0.13011801262628189,-0.52699545287463279,0.44731676657463137,0.13946093548394445,1.1109639796620552,-2.202503299352141,-0.89464225110494089,0.76522682434255163,-0.21875878628293069,-0.058360635500905991,0.84829078960919779,0.30088806088148545,1.0615458842979248,1.015201314866776,1.3357798942373651,1.3309702729315633,-1.005940174354838,0.1920908932602472,-1.2111829558314724,0.46681046101988649,0.58218223923175216,0.04814008602100036,0.2419814249171881,0.80440498657467541,-0.95515680195130159
