-0.69392788629961888,-0.13727582380395978,2.0577524565086001,0.57380163157375963,0.97481733049621833,-0.47553625772110952,-0.59168081724372001,1.1495541038341877,-0.73466669550426333,-1.5199811920115378,1.1858470927939964,-1.8630238255113671,-2.218263191978175,0.71896887968157053,-1.8939249643216318,-0.13966674621103151,-1.5877903053964815,-2.1171068390920542,0.2447967706668924,-1.416124694521306,0.38750110393573611,0.69780348082198984,2.521950486327813,0.51637910672779641,-1.5221753112218372,-2.5317985537851526,0.021004190403151442,0.47921357042775048,0.16656375159560302,-2.2129759744108211,0.63834948172412609,0.52748285813375917,-0.88028647070764288,0.45916406936650384,-0.93811754670231984,-0.91238593867608608,0.37375474746383991,0.03161858893898422,0.24772522917053869,1.0852778639885132,-0.43025783213418761,1.1681117550943563,0.39018932561385911,0.98465267995632133,0.46332217525543612,-0.32958169972661605,0.064487507500134406,-0.012416651615410109,0.76446124287277695,1.1661248209683428,0.012545110034584313,-0.33501218754535067,0.55365815772381177,0.56003226041371945,0.79020186141304305,0.18858713147816142,0.16214160182183743,1.0344271983284727,-0.41146632571651764,-0.28551759044887615,-0.15969015265488451,0.032933191590315658,0.65350432446935225,0.49517904672859847,-0.18800638552636839,0.1491847516003619,-1.4933136222880858,-1.0371944949412892,-0.4430506984807121,-0.92548464192544444,-0.89796404781526795,1.4667432169107371,-0.2531324911081072,2.0748980185708046,0.53652493312907712,1.4576724671785684,0.66402144115601081,0.6957635832777771,0.34127284594777846,0.22830011851202112,1.4201955595540001,-0.35550373386815382,-0.91759220777740447,-1.2923595747778194,0.10899871914196825,1.5933771887177479,0.42926132747591228,-0.48105458944539076,1.1081637356288425,-0.58194786966765211,-2.3577297028410062,0.60493050686788952,0.19591371356416706,-0.33928716841263606,-0.38294706006217594,0.52347693566422304,0.45858928101910884,-0.53118249029745679,-0.53841940852677073,1.0608513977682781,0.0010015267296242297,-0.42073842089026242,-0.55959530668289081,-0.87525643789407515,-1.403488954949311,-0.012323993158847912,-1.537957359720538,-1.5839096220357753,1.2175640063320303,-0.6541655599116093,-1.1835244494776178,-0.29244326976717405,-0.98415043458181772,0.12166811975099301,0.72806574815794223,1.2368581522951529,-1.6133291125174669,-1.0245507951490149,1.6885635508605181,-1.1039202415456737,-0.65773809272500849,-0.31379620993800672,-0.48722451361590341,-0.66544807383703031,0.42143744007563005,-1.7376401430082562,0.72661060895082974,-0.4166739163047502,1.2078880794553759,-0.32217488212112416,1.1829907539472557,-0.17550605756989937,-0.25317067736064147,0.36778888489109857,-0.54737958169716505,0.26607088652727223,0.18540738557088504,2.4023189072018569,0.33145696440469169,0.5351994992499528,-0.46102000755122746,-3.0032021241874918,-0.4693014710718445,-0.99654393049550449,-0.72733930595946761,-1.1751714608161015,-0.6600893129455131,0.40921643054556522,-1.1518411367979944,0.84372699673032336,0.15992143340005532,0.26632207139800812,-0.46076052479137386,-0.051122838581948091,1.5537632685692853,0.081580938185079027,0.20720162083847399,3.3393539429645593,-2.600785602477345,0.60910661918256637,-0.499687497549477,0.35207439875373175,-1.084013628733657,-2.6112016316456139,-1.2121853388674988,-0.45705041012379283,-0.32096990588218388,-2.058552139802166,-1.1988148491723924,-0.46833450008088479,2.182711674935367,-0.73188782907647876,1.2419770595444428,-0.17368832909950827,1.8008049733505547,-0.075979159978861954,1.8060181369656414,0.020948613526743074,-2.1686059094328116,-2.2734486858762497,0.096337039102209948,-1.1736285623093854,-0.033005067945298283,-1.4668719854706496,-0.20785011867073014,0.14521197097713168,0.08053226987509364,0.67448196891556766,0.66706306331518828,-0.25983111167797929,0.17481953460085339,-0.298693936546571,-2.0583063519925564,-0.79317808328878248,-0.027033635699635298,0.092949794191966001,0.23475799678592843,-1.9988548091078102,0.5894131519761171,0.54974872032189526,1.3711217141061276,-0.90525888447178338,0.21471238821440561,-1.2024817416623705,0.36405061368582248,-2.026224870889846,0.058083188129495353,-0.0075163488179083148,-0.86841143915452168,0.21144908091107395,-0.23343983017326642,1.5632207297372196,1.5513491406928992,-0.21472067510204487,0.0499162168360422,0.71347170103987956,0.83902554479305125,-1.5512419353356168,-0.68899287344595572,1.2368241870547088,-1.7704992002798772,0.04851573448329994,-1.3999794504010952,0.43834017278978998,1.0085948628337138,-0.63537819314192601,1.1759425271975215,-0.1502395392719105,0.039515274789291718,-0.53721375000737015,0.51453229779917842,-1.4311912341151023,0.42454265529973728,0.30676240090145701,-0.41253014727913623,-0.82792905430396968,-0.26354917649923182,1.1984348416437876,-0.39836146043099435,-0.16509035042874703,-0.1077279135028523,-0.46520236344971799,0.26834778815036375,0.28663190496245589,0.44321123235497373,0.81404828368576809,-0.66275483051289719,0.29870528479972663,-0.56453697575672335,0.49659763702366433,-0.20547453471942717,1.8338130869483635,1.8745751000880346,-1.6344842463246716,0.58192141500176919,-0.61479764995262931,-0.73684948790405103,-0.47993522446099313,-0.27815789707359101,0.49953861001550087,1.7537576187785739,0.58843359364998493,0.0037121263873654072,0.29291746558709669,1.5522150782578339,1.5582846797219752,-0.015966893954217604,1.4853184906201142,1.774051779205732,0.13016229659875603,-1.2683194966951401,-1.3577882031206152,0.43464428942151656,1.1159248602229843,-1.1254478437386812,-0.96213910375631495,-2.560569817995094,-0.50497310061786493,-0.40161158306906947,-1.7383870247971098,-0.060107881198312743,-0.58144265032918463,-0.88760986619982873,-0.018960577046226654,-0.55739226598539238,0.30825075933670537,-0.75426591405065135,-2.6276795522151746,-0.93893625631933508,-0.37771078258931878,1.1031309619687046,-0.77124845489518434,-0.84817194457108169,-2.0170151630050368,1.4339330622305202,-1.1260920998478972,-0.88275758220147971,-0.035324410835711001,-0.68537152143003144,-0.2160169366894841,1.031764451630506,-0.75166494613898083,-0.22374877459824147,-0.50076423019010319,0.71008811602756849,0.77653886559269725,-1.0906131691107985,-0.85005796658373745,1.7115999605423127,0.52198224508719793,0.99306832206713891,-0.85542462021922316,-1.5614716356647145,-0.60561279067445539,-0.097093755244514621,1.948585494513059,1.6043221445855946,0.89678708555984621,0.21355720019620272,0.6871296530024239,-2.4437247561917257,-0.21749490243643427,-1.0934672634303022,-0.25519055678190766,0.43478569165069836,-0.85598653293770188,1.5246184274311143,0.41913180648390058,-1.2758874526844386,0.68530626044313792,0.85696028307806893,-0.00087470168921853389,1.0092449271942054,1.264524624560295,1.1360360244741221,-0.19823157292983662,-0.045464920222555279,1.6879706974630135,0.22134925663779809,-0.32756831568033745,-1.1235614130269791,-0.44153904359337237,0.70602085016500515,-1.0878913001130797,-0.21165634897660252,-0.57809336139951562,-0.33219603321258773,-0.044653773392619493,0.74397109942862238,-1.6593212709348855,0.17599840374307546,-0.7610804632686089,-0.72824327392508115,0.16148957032445033,-1.6294649108948407,-0.46990985162096965,-1.3399930439794547,-1.2312100988401815,0.50599092409878199,-0.2379697182077144,1.5940584277368777,-0.50562817598146959,0.30144684291494711,-1.2564525442333592,-0.86000390155765938,0.19141669796355426,-0.32664784356260823,2.8090016537778131,0.16501330855792526,-0.26285861837085656,1.2860016366965046,0.069136418284745732,-1.4840892514173694,1.5902782024038444,-1.2027983702066494,0.84225023086982098,1.0654283031805798,0.78498318042298754,-1.0475250880633029,-0.53877089878959705,-2.2754752196465544,0.96609025274434257,-1.6745309918371187,0.81015036512878857,1.9075991194894806,0.11811023643332834,0.70128886973446358,1.9449844950411699,0.38601887925237893,-1.1674178169717704,0.33738987192646513,-0.71696076231636297,-0.63911390184158756,0.9292772762494812,-0.30587008722205655,-2.3835895274698178,-0.36314927807452779,-0.78292565643717027,0.17027180390917876,-0.24425158919181009,0.76867700979869202,-1.3866567757615134,-0.85141342657127927,-1.1990680787579824,-0.17776927780354676,1.2724625817362978,-2.1989363700979294,-0.4217977021793769,-1.0892268062671386,-0.96090344302813435,1.1444491595929323,1.3912365693359585,-0.60238109214388957,0.88159627371035043,-0.2222781932761938,0.025925111447560049,-0.84745047381142002,0.31898837267762276,1.3519931624705994,-0.084611720928280357,-0.041129753297230495,-1.7371937235269717,1.4740347468607637,1.0489568665847406,-0.25446260604368331,-0.17200540112743609,-0.85320186398731623,0.89715175596669117,-0.6833213016909917,-0.024067569215963969,-0.36592055954041297,-1.4348248051828247,-1.5703233324255286,-0.4347488005338318,1.1756181076689989,-0.62605340062096471,0.56190267595820775,-1.2656576267744868,0.52015940544550476,1.221244666640614,1.6956442159362897,-0.873079772832274,0.70400019748039622,0.68557380854023275,0.67186691134128318,1.2895861895082243,-0.788330303741967,0.46303757710476184,-1.7248006464952108,-0.45607079626773522,0.85579128311980879,0.52599281187916103,-0.27238735286437632,1.1427128065990426,2.1025474738700152,-1.5064170813530338,-0.47128938775038504,-1.304326127406886,0.20695668592986252,-0.6498793603019658,1.0181887863480672,1.0710472875140749,2.1253656066421591,1.8305034897671766,-0.50966866117051191,-0.69886707456142028,0.84781900649836017,0.84484253385016106,-1.0338063615672957,-0.34640854063811227,0.64827210535633362,-0.32323457199383526,0.9308181846752962,-1.9946997280086738,-0.15455201588953202,1.3024218873111157,1.7502796024742913,1.0118271722992249,-1.6960427961651354,0.26417552206891665,1.0221434320029312,0.29758871769832823,0.93698045188778389,0.57690847716356952,0.85236036063037313,-0.75945214969772823,0.53032203540791945,-1.0377191380512041,-0.37604192368607997,-0.60369748013663893,1.6709189839258696,-0.03091202482654663,0.23191076331854837,-0.45464988447226701,-0.046540192061947802,-0.12207235383782515,-1.1234811299237606,-1.0124608556741055,-0.85205327953992649,-0.67458312517368701
-1.5300904632029058,0.81549582905218809,1.4429215496107632,-0.41843628253308607,1.1933893287521591,1.2290148606615798,-0.79440173936892788,1.0753876613263726,-0.69890326292651417,0.93993439384610666,0.50693392423445838,1.3590529667578735,0.48664090144120914,-0.58324344879655909,0.1067617778268172,-0.12092823080067254,0.039623226101947351,-0.53904951315343175,-0.91984903759505654,0.68227760185259001,-1.5504772468920023,1.6123636835174224,1.097903204680152,0.6046672915981256,-2.5715771629748678,-2.0411990294535012,-0.31600739959985019,-1.6748941130654564,-0.53043197235029926,-0.2193864706160682,0.55847670371434743,-1.2918896025284912,-1.8618910880319122,-0.13027982145626729,0.45063416117484556,1.0596954265600051,-0.92200718367309353,-0.091372639891679028,-0.45767070819893002,-0.76534039941513532,-0.66646182762290118,0.50893213789994884,0.21183075003804508,0.53574526826548918,-2.0329965054949337,0.83428487572346255,0.79185385758385884,0.22299384880436757,0.58695073609445136,0.60031018763340627,-1.4217560186424261,-0.27265621669483697,-0.18279112894535857,0.39135224235448351,0.055016525252391653,2.5197097123923977,-2.0334489960066859,1.951723668596284,0.45008992800363662,-1.4441344126769673,-0.10750501947527961,-0.61531877142057312,-0.68616096723719455,0.76509542822406507,-0.60129450398177897,0.21641004219757412,1.9964766475637516,0.29143621506341344,0.62057778469867331,-2.1070236952834245,0.91981125613386261,0.0062946753724753149,-0.21046653304789989,0.25094463034074754,1.176574215901619,0.94828939937540835,0.54593576117481013,0.12648365829643135,-0.017957970974484826,-1.533920743546636,0.19139457385062975,-0.11738104066568333,1.7675922541797946,0.48187620375376383,-0.013446514254825733,0.36007931617303707,-0.021169827513600852,0.57123024455187621,-0.37095453761706326,-0.098487525105094689,-0.7891843185328502,-0.73661525048851018,-0.19872247152227426,2.3020570577664397,0.21387023347913248,-1.328246359223656,-0.52280174140934688,0.025654676200714606,0.96276388169997218,0.240597921069957,0.31653594915504413,1.0713001186818705,-1.3038495402091668,0.93111445111112301,-1.0404475953860468,0.78759546073352749,-1.1534077705800272,1.130052459152092,0.20903433396415902,-0.75309741775183747,0.94005518701078949,-1.8235876978137959,2.3908502168776251,1.2194003277124013,-0.30152500876925947,-0.95317119106437487,0.74191615001887667,-0.85833781071295834,0.75174405799541821,0.61419159191903372,-1.3243896006577269,-1.3668820119855809,-0.74551828255159769,1.3722961080864196,2.3176572228013219,-0.61215180323475471,0.32558414069968411,-0.17294231710398153,2.0247332814059975,0.91101016525921841,1.364551697599915,-0.27917380526159702,-1.6854945146601168,-1.3123060256678305,-0.042205137071671263,0.98878276260600295,1.2140233700002778,-0.55855541177103896,-2.3032588403378886,0.54294860360784114,-0.46942331527248771,-0.36113112543157661,1.3250285430228022,-0.4607093002521217,0.009306195098371519,0.45515327151166474,-0.17734179297669433,-1.6526577919390348,-0.48547520338024031,0.22450499208280694,0.21020428070260705,-0.028319407197455411,1.5099544536206206,-0.25814320552967762,1.0199891082990682,-0.51967989946025606,2.5281164671283571,-2.8835248803839146,1.9673290766443137,-1.7495150253381375,0.61519316895728393,0.84827739289296333,1.1537556025948057,-0.0052219020472140309,0.99710505051787834,-0.90000743034593622,0.2018927274808765,1.6465145212720689,-0.36206516932696081,-0.013922494090685168,0.2666794124780073,0.67611375745132607,-0.21222511459305748,1.2380073093301311,0.74513545532433267,-0.056843903077329241,0.71427587396554137,1.1431210193562311,0.43959462642300884,0.39431704130761086,1.7099298532137626,-0.0486856374762029,1.017509875921653,0.47019697106120956,0.16519370261276897,-0.63960824584174059,-0.10689718650361721,0.82994459527899145,-1.6933710174078034,-0.45013850627750696,0.3009202352593856,1.045108682855546,0.32496011518965923,-1.5759112246364138,-0.17801546171357271,0.12337126993462326,-0.66388058133706052,0.042831538451134195,0.048709596214115268,-0.83736566634121345,1.005942817561553,0.24775650427802998,0.46828564227786584,-1.6880374272704237,-0.80541780591699286,0.69155538108610459,-1.1499366334991377,1.4499552244681362,-0.031098848446757837,0.39230210851208902,0.00089528220704609323,0.60231198454386126,-0.20182144713088859,1.2471960009533292,1.4715892942898567,0.50266674132256051,0.48558036991536924,-1.2672012498405179,0.076523664132317287,1.7429228830967047,-2.1605211079965581,-1.7175358595975503,0.27813033327449016,-0.56604028460808897,0.41093876178205463,-0.34653126319177613,-0.25621860535117469,0.20392208962010624,-0.51943966506654937,-1.9648508709020824,0.11472881876843362,-0.54226374024928137,-1.2002076290817882,-0.054281520463499967,0.70880708774123513,-0.09056134348730592,-1.1452932671765723,0.31314124917920161,2.105821122854767,-0.24452269961847758,-0.066239887244199561,0.10362149119899727,-0.46620609466517315,-1.1166785212674784,-1.4811756569857397,-1.0148402157522822,1.0814825564742345,-0.085269204305688295,-1.4604458920038066,-0.40469126002633438,0.53083348405346487,-1.4090895804656081,-1.651377284240751,0.41851351302477391,-0.13088702598093283,0.26692443589367981,0.76571565564529098,1.6522324250468001,-0.87137852816665851,0.16413291146228093,1.5799944079603481,0.61970275667047059,0.89038043663226585,-0.3277928735039527,-0.15990694363327226,-0.28283646720965488,-0.71547956572363103,0.98540050082717079,0.1111828454938564,0.14028966801979986,-0.94638604042632068,0.92073576765250031,-0.70779813058039709,-0.49250176648092053,-0.73812872799823781,1.2067766928107682,-0.17355157132660012,0.11820046558269653,0.43326207507475317,-0.23083205573322899,-0.44678303731821151,-0.2759304317420932,-0.38533835440414649,-0.61417237859382035,-1.2945013068793507,1.1888653136696452,-0.25103355291355889,-0.98014535803510805,-0.52559383494251333,-0.79616955155075997,2.012110177098466,1.333214368651281,-0.91301740842720225,0.12161262518241178,-1.7606795912356556,-0.14218820335926274,0.025046299902832622,-0.36026109783249355,2.2697732990205322,-0.43214638737607364,0.24366403243884566,-0.4892360115413607,0.62314740786287515,-1.2894652444569266,1.6322230175291566,1.5039631811152891,0.64849190844074545,-1.3191013663896582,-0.90831159844562437,-1.7223157078099782,0.32355267656002884,-0.24024288435371796,-0.28038537496182359,0.21867916885943742,0.30713421295617277,-0.78070309390408099,0.32878461451269292,0.18848257803973609,-0.58883870542738492,1.9659783192789995,-1.0874721057539392,-0.37994416995064018,-1.1228039900617464,-1.7739090194880349,2.0555335166783948,-0.31570789491177326,-1.0633530379687544,2.1374935536765474,-1.0761951390581395,-1.5624195333331179,-0.64424928649775326,-0.32459906996626342,2.4926321432290792,-0.89426485944141765,-1.2164143366061151,-0.31842517450555291,-1.4108470144531633,-0.19914366957597915,-1.1255105003334986,-0.18961404318400576,-0.91361395488315067,-0.6139184676768743,-0.4050802314424341,1.8400242533388498,-0.89958746671091183,-0.44805704169768412,-1.4641463617131714,-1.5904169201270029,-0.80877487592683173,0.39561890101286379,-0.69005189091300623,-0.87906993875720052,1.0249671089635786,-0.49450009096084163,1.3408195428976466,1.2434503666303232,-0.89138107276828693,0.3267687796582458,-0.94268432223744503,-0.39725557549427809,-0.95031278768896554,-0.18696631317585419,-0.58102624597468078,1.4691925867326916,0.92573662575504556,0.97458758035417004,1.6329952728494266,1.3174915297344822,0.77964589181692323,1.0997201045261562,0.035003638743598513,-1.0225194126171193,-1.5870062164739236,-0.364468931311411,0.93209744955512885,-0.042378602169367632,-0.39064133675135387,1.3742450395065884,-1.2721258657712198,-1.7386052674477541,0.19575610328731727,0.49324894154107451,0.24690803241053774,0.28318898048040719,1.5907983261887186,-0.53588757208601867,0.22372464639986411,-0.12840481465538828,0.00085973001567242718,-0.64072815846846776,-1.7396559545367645,-1.0054984162485721,-0.052425327076081579,-0.021896323886688749,1.5467233903800561,0.56430378654397029,0.43522958053849359,1.4336069920039678,0.6644664299581714,0.81266479539071401,-0.43713007708332702,-0.044410225442332876,0.26737410536363571,-0.84102979452261351,-0.58251371025229626,1.8569584897434532,-1.226541283746019,0.37559871123790328,0.036453603824968671,0.81794161508045438,0.28603268133501686,-0.10293635751648336,1.4642701720961555,-1.8007512709194369,-0.069438911233395101,-2.4019829297952606,0.31947745832440327,-0.5889823156963474,-0.67736661010110777,1.1237796194536991,-0.70031068331630009,-0.0080113130128242616,-0.47391034994400238,-1.0056301830387928,2.467572519134607,-1.9693959695101435,0.11212422658577902,-0.92757389316442962,-1.4867295655168506,-0.27445067885910229,0.23197512251117094,1.1285343083579158,0.50160754148064035,-0.090365236538099608,0.45393492086687015,-0.042941383687102742,-0.056028653886837761,0.58712697168485706,0.0065369813845297092,-1.3886017579276604,-0.78031843601350781,-0.36987992800538977,0.39521729361707592,-0.16879611796223132,1.2344509460105504,-0.3060556247744623,2.0510569407981816,-0.6149553443273984,-0.82090793387227767,-1.2256306693716321,1.3497491467420841,1.879883138744159,0.12612678061623275,-1.5714266480590353,-0.71293371712349918,-0.66861237653650252,-0.21267886391925811,2.132708226390815,1.3860144329612749,-0.61839294281229962,-0.35218227530422402,-0.37871263117601467,0.38161922410907606,0.58400061307711781,1.6063318621560265,-0.72054651303292128,-1.337852772016654,0.38619716154549677,0.17592253297659177,0.094373019454533885,1.0814987328288888,0.80639963648023361,-0.041910110282539374,-2.058445696419628,-1.188847211173822,1.0920935137210523,0.96425033727693554,-1.1438968186558118,0.1782524916150463,-0.98097318910348796,-1.8318922766479231,-0.92866671421393898,1.5446518424960864,1.3181675018642798,-0.26639308138914125,0.57869739610843296,-0.56683646327129733,1.0764752080313691,0.94710105715752513,-0.089285295821260574,-0.4573162018191303,-1.0426312770333725,-0.10315639167035755,0.55629640258681312,-0.48015593528043798,0.096471311731304993,0.60858235683445927,-2.066372554996875,-0.19391319194523293,-0.80681840796157178
-0.38871132096645566,-0.38943592899346124,-1.1292851752153219,-0.85284329188464247,-0.36268836012044681,0.49146966951766802,1.878477441071366,-1.1674683025400001,0.21431115063212558,1.4390056140236518,-1.4115019377033899,-0.71819441077454971,1.2275095753047263,0.32114388036249547,-1.2943436783960518,0.92291843498453019,-0.39863528906126372,-0.54462802505947439,1.6520046160999129,0.14801101142964751,-0.46297270739452567,1.9005283494093013,-1.5836149434232196,-0.5809183686158329,-0.66188649417699053,0.64636490236903932,-0.47183270582655756,2.0142815280762689,0.21787059610721995,-0.64984640640180658,0.12564223275999437,1.0307914138131939,0.52588980264803931,1.4817171800345468,0.55943490565620035,0.016333569814074682,-0.31909611237122937,0.52356657140391871,0.87616768906566223,1.8866115591255967,-0.066135439964730119,0.44541277697694248,-1.1850547151408306,0.72789850548611112,-0.89005629116878537,-0.32507920371577093,-1.3465010265660058,0.54314863461202556,1.0806699635658961,1.4156342428222186,0.65835256077438176,1.26004594587749,0.16876309250689708,0.90279342718228472,-0.62454191440377593,-1.0716309688724051,0.8800538310963083,-0.63705827415299154,1.4486432252126782,0.33528679248351978,0.51119234451972007,0.29141171286688061,-0.11946198438065042,-1.0428346298106905,-0.78685641223920633,-0.099701553093267822,-1.5938185605696422,-0.57172787328821084,0.55040990285136759,0.42683489889703718,-0.43116233237772517,-0.43722972489413203,1.5804101063207483,0.071457554198662801,0.56581751536194835,-2.4550836844332804,-1.3504252120931233,1.6090143501121834,0.11908190584757224,0.72485715116544425,1.596403282394006,-0.19818829380132963,-0.29512000990109438,-0.69145949342006385,-0.21160946326262947,0.61701762645232228,0.63350845782151122,0.73848483455005964,-1.313536717390299,0.90505525991583424,-0.75319634478281416,-0.99936003676206808,-0.36358562015046203,-1.3743181158066335,-0.28901551635131001,1.1561622260742863,-0.19954624239935212,0.72630792695183433,-0.93621618202859735,-1.7523356857086771,-0.42904998429054075,-0.84849964645178311,-0.79769630767790101,-0.65387540256063326,0.44101104103303568,-0.0090507911937095144,0.8139261218828221,-1.4560273903195631,-1.5569070121716724,-1.1414746116176264,1.2629997249758718,-0.56748366957233809,-0.46240387154062207,0.0056824992010615898,0.50470953897932314,0.6115954705144262,1.4849415210600372,-1.0945655207846945,-0.34902310999911712,-1.1232555197020548,1.491711940374588,1.1908232810283093,-0.48229488096603562,0.932253498031132,-0.85338715099963036,1.0903651637396654,-0.10218310572376023,-0.19450677084606233,-0.38662487659201167,-0.80372285173611169,-1.8222995166560159,0.96053488260738418,-1.494574038645992,-0.35899106850172136,0.47644873371185531,0.28295283397475723,0.52261997041097263,-2.5971089149036164,-0.55889336203633355,-0.19071109186939339,-0.15901327442348284,1.856866697856473,-0.83561408882170707,-0.33873805057959927,-0.34868110431249061,-1.3326681188303025,0.27395638240330344,-0.10290943109166414,-1.0532547807692552,0.58705701934614141,-0.61692723633841606,1.1540478812805346,-1.7447347463513652,1.5946594590750831,0.44980390533106207,-0.054732778623512911,0.20720057445111534,2.3262621281919373,0.61132014069281937,0.4617855842011388,0.11226957014389702,0.49623896165718462,-0.96394809705705864,0.071729441260378043,0.8861954978563874,-0.84587090457900238,0.26981813188716408,-0.79065647551527141,0.86927134599150468,-0.57905924103417006,-2.0326679520160176,1.6673173613321386,1.67067859450946,-0.36387823522371399,1.5561551072847366,-1.4523864401184443,1.1307454017965926,-0.89483537365554777,0.50074401272643554,1.5497766723097959,-0.30927968358349284,1.7370634623474657,0.64048531306962275,-0.51067499759858903,0.26316437391638137,-0.1414999254269137,0.26396826467315571,0.26277092951896625,-0.32183310567072543,0.54136057933028858,0.24377776728909042,-1.5222009339518865,0.44590600764448474,-0.82779982438348831,0.27789792727729379,0.31749315030480707,0.13750254993168184,-0.55514842235025863,-0.37761339773643765,0.88650847045377168,-0.49837764295770187,-0.74810548354245043,-0.59463043611666999,-0.059759830576845245,0.730755705470573,-0.25790027162507867,0.16296974273134945,0.31517238041693801,-0.49662474519637367,1.3814169717167897,0.26787053805935462,-1.7847060926417313,-0.65549529085967617,0.84485601994867099,0.52429165668074318,-0.095904009191084938,1.514494539743144,-0.16682922545813178,-0.45910543236425466,-1.0369732405438103,-0.76044018428886218,1.1508519030222155,0.032423738535536852,-0.15086000859180287,0.10457724776443571,0.80831090046400711,0.98365688756254543,-1.6598420300327856,0.15385245414640639,-0.3856977229602172,1.2135195853376468,2.430087955061254,-2.0073867134044527,-1.2978756197745127,1.4274290179895779,0.47664981971617021,0.16440027029598189,-1.0315114914677888,-0.29965968910526913,0.50404748676054523,-0.75708460050832793,-1.1378840121075848,1.7453011705569725,0.36266712236013254,-0.12014882796261914,-0.79155839286919338,-0.1046110499442004,0.039844988094485057,-0.28471557206739234,0.82000272171433042,-1.7701417120392151,0.4693833399560382,0.70943784963570911,1.2498399983196655,1.4637182497214245,-1.6976340142138722,-0.37695223013787349,-0.46446952084230747,0.95306434560164099,-0.17588261839248279,0.15366205027469393,0.54835057296712997,0.4522448582212425,-0.99656730380118419,-0.68117317880677752,-2.695799777344785,-1.0143504914416754,-0.13688040038974159,-0.35804804382144695,0.42189119212222526,-1.1086094996489197,0.66048478852104187,2.3808393214670911,1.3718687178834081,0.96944097063732015,0.87969026869111355,-1.247578477501242,0.80743089320249672,0.23211849053056274,0.96049075483152258,1.1082558230297224,-1.4465367950546786,0.9006486940472026,0.52592242644531007,-1.1763365515286499,-0.51180127202488856,-0.54991412342836188,0.35459081566331241,-1.1649518036448872,0.11624202310409311,0.97777228052598775,1.4039869404825123,-0.1834326951859718,0.73972400511067293,-0.14559119144861046,-0.53171255128761119,0.84447510691780392,0.94846431837000234,-0.29990011765783553,-0.49567040922821337,1.3257589165188015,1.0710278828689772,0.14377185930936368,0.56608140099656967,-0.10248942497519471,-0.69135447985726883,-0.71429165137952155,-0.99854682328919064,0.39933844533136276,-1.0847211801912591,0.021711183903049883,-0.53770403562585234,-0.71841830683773522,-1.8164749582014428,1.8290540776882092,0.19966259931245162,-0.63744424656693588,-0.73657375093115374,-0.87366755731107182,-0.77941252579705478,0.15067893206682684,0.29914692433732959,0.58113691434224446,-0.79584027507925525,0.6143573632791387,1.4446692508012504,0.088954147730109928,0.82685189083831478,0.35594670797208516,0.05988426068662861,0.069022418459707871,0.12330900455504178,-0.39703778136452217,1.0788654027311133,-0.72554440966010647,-0.21617771133636707,-1.1970159467873953,0.70507503331005672,0.92082297409237135,-1.2290508980026109,-1.9959002016130423,0.10610093398222675,0.30507831921710193,-0.25783611875870649,-0.72442161850161557,-0.1600807041950604,1.6375956218908803,-1.1017077885677038,-0.45594932724274667,1.2565744746761653,0.59965494571607636,-1.0476183729426085,-0.66580472954638936,-0.047387856465854986,1.7162108064343686,0.49320218330860577,0.56526371977422663,-0.2230769586915379,-0.056166578592052818,-1.6978706122801888,-0.12096001785673514,-1.1439966207095982,0.018048428396522015,0.43702785247115439,-0.64765975152903821,2.0919853275794722,-0.92676680346005069,2.3668730065064243,-1.2166607293915532,-1.6820810103983244,-2.1353636766600408,-1.7476846895462377,-0.3532382047750855,0.75154289860299239,1.5958787618033872,-1.4824328992267244,1.2019295863751969,-2.2268629604433543,-0.12401635501845892,0.56713908331405249,0.47984422163688267,2.2128702420826278,-0.78221954318800502,0.27988126600972818,0.025519999611981047,-0.065386845051036535,0.57338370523779103,1.1270279343602798,0.80537145747862071,1.5601057255512401,0.20734562332984718,0.5287867092823707,1.5216064807388712,-0.43458301855492371,1.1980949664840432,-0.62661208552044456,-0.1069861922401595,1.1744030347122367,0.7823908097905049,0.32646780259419489,-0.32502550666682128,0.19501916803222868,1.1697584263292604,-0.24460772288628876,-0.48798366682434341,2.0937577220757086,0.18530851956260841,0.51149550058637372,-0.5701750797342986,0.15039253933263813,-0.12863823904691007,0.2890833301394059,0.22536173478324575,-0.48139888109870832,1.4223829837549324,-0.072270326730035445,-0.59589411772832501,-1.0716685142596749,1.5543021765862044,-0.6088171057361158,0.36032158849837659,1.1351859618674547,1.8339057170231909,-0.031420674704651971,-2.1900254552902529,0.6695828631598586,-0.088336709142172287,-1.1667001433491677,-0.77943700774496183,1.0665685429930947,0.085223504441675757,0.37564401546130111,0.59759891517609787,-0.35769271696318838,-0.090356021204317835,-0.43919642755948407,0.21937072974559266,2.4207091667858553,0.85286421418088321,-0.32449918238738185,-0.13000430056264808,-0.98644078335507335,-0.63021215351291393,0.55833292954225788,0.0080879799313362376,0.97208153479389758,-1.1242917329530491,-2.4797887493799542,1.1522760419485925,0.34571540027999326,3.0598964558621904,-0.015615598665231567,0.43431408601890154,1.3374608759704989,-1.3538827436996255,-0.17071452619501415,-0.33862971124818431,-0.22480971366387598,2.8851296324001243,-0.52168170603331132,0.26023255634022319,-1.0304292200719924,-0.96719624492739498,0.38158864216670407,-0.32060975155511956,-0.61026333165650137,-0.62369154567954044,-1.023701199645817,0.46994862374851748,0.52750585049580934,0.098696514739123109,-0.33730322014174524,-1.2936191539602999,1.3227845122023731,-0.532218839689659,1.0050487761868294,0.30533960951131311,1.3873918543766999,0.34473106744004284,-1.1212327271003191,-0.58981093548410501,0.97886793882251644,-0.10178997502729398,-0.80539253745323403,0.8051380828573792,-0.15996859680466255,-0.73625789225216887,-2.8375382203665525,0.10279542931755095,-0.95674385112202787,1.8732774366110234,-1.2123079260763525,0.29428210037113378,0.45885824210442205,0.76020636993594393,0.29428752201335051,-2.4537805445632483,0.23317193880235992,0.074942460555373833,-0.19399241274385673
-0.033540385323286931,0.32735922517690447,-0.23038373620451319,-0.6777816265786879,0.6438397125774189,0.37571309240040301,-1.4617124061013227,-1.1852184571440354,-0.082754786375976302,0.70097784714841582,-0.055341644681856032,-1.2936616644868002,-0.1900187415888954,-1.2371259826768799,-0.19224817458604351,0.085588530645479333,0.1724469407780829,-0.45158366547706125,-0.29853502138282972,-1.1975993998425627,-0.85679772370060581,-0.3587535108869655,-2.5662921947567874,-0.067675636347285545,-0.55110351218525755,0.72018669009765002,1.4490776686765769,0.7490453622295481,0.96080772933505709,-0.61425883989598096,0.011752631466566004,1.8124378481966257,0.58337399233233178,-0.052855683516961981,-2.2593257159005544,-1.9017072637451198,0.23690877221540615,0.77948857750484979,-1.0428627523142775,-1.4677407551877177,1.8824734820415636,1.2256630709321712,-1.097057865492199,-0.53671947726917424,-0.33572874752508858,1.3155272976569075,0.46585712299745152,1.539059388100229,0.68279957462604446,-0.24664870545600878,1.0389331888027822,-0.67510434648597573,-0.99860806479281883,-0.58328270744509758,0.74709001268605668,0.22483686836137662,-0.63707864472582443,-0.32720642541007028,1.0299202774734806,-1.9545741734923248,0.19296411607252154,0.52874191529972059,-2.2968336511498193,-1.7319405455554426,3.2563936021984801,-1.207426739448088,1.7422418534259727,0.073285474686395041,0.74979744730732389,0.69098833373373314,-1.1467191008434523,0.12105482826752745,-0.95967273087604454,0.063272842623904271,-2.2763228080937279,0.1029742944199115,0.72741172037904589,-0.95221524265026625,-0.59249371878280244,-0.31003704839976398,0.5387968871272002,0.18084817790041494,3.2823225102075053,1.650934455716496,0.0080403225004303924,2.1922455357728801,-0.86503691885978584,0.56991875665578318,-1.0608060610776868,1.2129478322171783,-0.5608217865852767,0.73331383147807694,1.0154999374010971,-0.94147030780404728,0.19396722717772802,0.72939669545416708,0.097778641927645946,-1.5397941650845655,1.5544127226840914,-1.2151175553474323,-1.1273559163123983,-0.1681030213778171,0.70367676909580512,-0.54215748950431786,0.28637850345899385,-1.684057360786767,-1.1313615151206309,-1.0455130551287486,1.6723013207343762,-1.0890536134365332,-0.17670833515336531,1.4441897034743896,0.71709014440227914,1.8438037649089296,0.87496354077002858,0.15754149240119006,-1.2867267448013733,-0.78614424953547279,2.7127039378467899,-1.2789782440674466,-0.18933125229160086,1.1012261901726661,-1.2926325456569463,0.58852736782773918,-0.83920980529236266,0.29444008652342635,-0.16077860810044661,0.1560843172464523,1.7959035377798982,-1.166897904268166,-0.0522197385492962,0.74806344765323129,2.3828317313991829,1.4717132708207545,-1.0270451712330644,-1.5350619537103827,-0.15682186800652625,-0.5701365120209303,-0.60921180726560009,0.35981610170419803,0.2572397801328164,1.0400644557813794,-0.42183408487616686,1.0695820272779826,-0.86833659667216945,0.042147050841162416,0.18707017925103014,-0.79797148656684436,-0.21238841817290274,-1.3185183842497321,-0.56554303717990262,0.26304542555176286,2.0463640850175571,0.072611188800464271,-2.0193090514162617,0.22867645390888905,-1.3771832577719141,0.13568816998604546,-0.0058639021785575696,1.6734362692782878,-0.35724346076353458,0.17980787028162346,-1.3714903775527616,-0.044848078389527979,0.27621486435748754,-0.9730931117069318,-0.36875750421876641,-0.12451508498764795,-0.10307595648314268,1.4978476406889627,0.36220342008427103,0.48882558527002917,-2.8029947472326029,-0.10101021584920036,0.37069609288105376,-0.021943937234791291,0.11161511919663085,-0.70077216006681609,-1.7253665397333304,-0.18185139783164431,2.3433408718257236,0.44552395871827249,-0.70596738999579267,0.22400522471056883,-0.8843208253479159,1.8451844114728244,1.0611072316961894,0.49212355462231011,-0.68427169792811382,2.1946809309736794,-0.73652683500891614,0.64043626455118197,-0.13349269119204787,0.41141244752938966,-0.03279513628455074,-0.24667409942124247,-0.82224263081546634,0.41561950104657536,-1.8276604018835716,0.026791283123663249,1.1169896729951354,0.52950671087183865,0.89007425707830901,0.41615492797734671,-0.69933533978573392,0.024774518617322151,1.8914841809604184,1.2968926631748108,1.1157412777626874,0.21953391214532403,-0.060132570319328824,0.53719036096813,-0.81091884847665774,1.0660374471934424,-1.6186585153497723,0.26077126757546293,-1.2045363931747892,-0.54365553409173073,0.71087902381598711,-0.026549320526951189,1.1249656501671648,-1.3045338842906677,0.62992435810623892,0.35146246524160496,1.2076975772976861,0.070232463655045152,-0.87391783386097377,0.2688925694638909,0.39493469260292063,-0.33439890275035594,0.81970343456656958,0.5841850296096377,-1.9703728852840439,1.4023375670298084,-0.20922102511397839,0.51073212858646655,-0.33405828221313066,0.46296149201451231,-0.22312522118368316,-1.2865527298809025,2.055060857862101,1.1636825600645233,0.61198311949107742,-0.53017895794768777,-1.5912697140711392,0.24138864882221184,0.66724157664712613,-0.28504668722150595,-0.22908971577893814,-0.59549360667012996,-0.9463126130893772,0.91206700873798918,0.49302386179456664,-0.88896013166746268,0.48610065148415027,0.044790558438662621,-0.44919586847491788,0.29543519706479082,0.23567266570395867,0.62026220878289118,1.1895792581344982,0.022112697790594424,-0.51779077011219743,1.5588302737307935,0.25134673631159088,1.3474140776148809,0.27201648389957178,2.4516883307631048,-0.25033094428321939,-0.23442049083627561,-0.8912552814672432,-0.55079923499283023,1.7292312649980133,1.6858195696896081,-0.5771592158511053,-2.0333604308843598,-0.66495912487709974,-0.2068155234634847,0.99478812034554909,-1.8254781626941252,-3.1294734173140948,0.16762958713239912,-0.85962513294777687,0.38229521481173889,-2.2323177183585114,-0.74176137980907486,0.16721104066383913,-0.20634009294775749,0.044194715424839576,-0.60608912564970518,-0.83913494840921321,-0.0071574620569734492,0.012930194128897917,0.94460856035333707,-1.5361365925254011,0.50749094039971809,-0.98427258618662561,-0.5321517310168693,1.1948805302671357,1.2346009340955211,1.6297474601142672,-0.10075132047204984,-0.56750807838810802,0.62025824811747399,-0.54913320883509498,-1.4615633705112261,-0.38042968387272091,-0.16108843562329014,-1.0505172855893474,0.62107686731266987,0.40517938277978854,-0.061501467956042971,0.63749366057804457,0.55371002507066203,1.3624177101990158,-0.022371450057838426,0.8119798132352567,-0.77055944272664956,0.39341514461922505,-0.29063059844089678,1.680208054098715,0.081194497828051299,-0.3173804033498519,-1.3270032071309958,0.67262522234760591,-0.45237346880993601,0.32965450498616833,-0.27429113096989699,1.7017478979603922,0.29190462913736587,-0.76973289081091467,-0.68305968204055489,-0.81875623716062806,-1.0123717930448106,0.10111741815838332,-0.8436817925940624,0.15558408994550482,0.50318329152857943,1.3371645418139826,0.48833056364704874,-0.36277272537137667,0.95664604149988841,-0.74205134958200403,0.55731655556149251,0.65527041192261148,-0.7469745357106623,-0.55535571842258624,-0.55806415085848327,1.047968029009952,0.53101752472124286,-0.17046040912266719,0.38787964862639801,-0.26692353555983522,1.0835263843937113,0.58121015248521501,0.11792548604376145,0.87746296764778098,1.9916272244736342,-0.64399504189916013,-1.7952974301837756,-0.014899189973268981,-1.7675225016256628,0.25965809691478436,0.55374073730661721,-0.18391336980939521,-0.07143957634098623,1.101219111291202,0.11355340153363373,-3.2625755003149215,-0.0016793336253097147,-0.86327426676485919,0.76392976059233908,0.56299982952133798,-0.74722589583835031,0.71381351807975535,-0.14240389692034669,1.4926784207801072,0.046469297873692042,1.0118722951658758,1.1849894929699969,-0.63978811797308965,0.63389025660946852,-1.2452266992535275,-0.79100558229037854,-2.1026459437517531,-0.081464475318969692,1.9960404728177525,0.17913731847059675,-1.140454053204726,1.7985722153743513,-0.70565889148774785,0.87198432127405778,-0.36631277048386685,0.050903781871882853,0.10961660924262891,-0.67194970720471847,0.96065759831057984,0.55121039170342945,1.6283952267500228,-0.18291925165037293,-0.14152202764582203,-0.2163780250116531,-1.0708416342361544,-0.50949210649217536,-0.74078704639391235,0.0051819946644109044,0.44659830463706618,-3.3591542661031659,0.87755686508119324,0.24608033833813639,1.007961024276484,-0.44283400387078475,-2.3712986434760635,-1.421977420085978,0.93493278933111701,0.40466454232145149,-0.94531576749954871,0.30122589800384242,0.81376258565028514,1.1706914667259305,0.25440642709209549,-0.075207337527841256,0.053702960646308577,-1.2728464135103652,-1.2209398802638882,1.2013415555830695,-0.61312788212332581,0.42141353189177944,0.61090139360056972,0.18494159090005075,-1.2476809587084861,-1.4679141221840613,-0.71357477024003413,-1.0123081300626529,2.0142887704147672,-1.5814800387718519,0.36971080018887709,0.93875617136754996,-0.57127646411065602,-0.88740374301936154,0.28023515538128396,-2.2041428517145443,-0.00041935377373662194,0.69233718604552474,0.44139163929244341,-1.3490086637319378,-0.62822832083892599,-0.28993252841636535,0.39913128452459623,-0.71902942421218119,-0.26213969331683962,1.0533197846555502,0.049368238068092436,0.0078098769619605679,-0.60427152607101675,-0.20432267950989577,0.72763931473374321,-1.9431923905054038,-1.0415654998349129,-0.26497024631789562,1.7016867462762195,-0.64338297425379765,0.42644719826825545,-1.9930401928440222,-0.12296505538108021,1.6128832405540108,-0.27637211991889848,0.98133751427333216,-0.37937132366556081,0.55818408360745142,-0.13016546373715165,1.4824237971695342,0.61194770601498494,0.7805803107041599,0.03210175841740677,3.4952366185269361,0.27407117064278369,1.7652975446188452,0.4332684819738008,0.9203148965245439,-0.7757800477019835,1.6992222028412389,0.58646446236807925,-0.89134763350349988,1.2252449810382959,0.34480840910830324,-0.61879297353351459,-0.31375395859842187,-0.41992303472689613,-1.9328585275383701,1.5760940954334246,0.61435251236850741,-1.1446818213272161,1.3800119096820274,-1.6746966496646207,1.0489658943587037,0.33268089100520915,-1.5494070639407596,0.50034881566216327,-1.0418573840426797
0.14673822772627601,0.22494002165733476,-0.55107482753079529,-0.63333881825476956,0.048311240247866191,1.1866538437318839,-0.33167573031608577,-1.067404343847802,0.58694907385831785,-0.23609711299894173,-1.0101209392901469,0.13111015429530629,-2.3758141343508803,0.11659347292768593,-1.6142024128659123,-0.1759587521125964,-0.58774313919235288,0.93415609427686508,1.1269080054041689,0.90101238735015987,-0.15552696401765112,-1.5994693997654637,0.6855835807112729,1.0244719598292868,1.0989943882311548,1.3454508894641701,-0.22232912639307603,0.089350994605553347,-0.23726418303178418,1.3526242177235805,0.44907978528008691,-0.33186481079733726,-1.0998583985489427,0.70187074664161198,0.66602649338806219,-0.88239150371314334,-1.3076330092342501,0.1061712709657763,0.78871085916972283,-0.33681721583624857,0.22115053509035368,-1.7936833148755285,0.15377042964481111,-2.0767008499144377,1.2615716709038944,0.21168457072372665,0.37739147087342612,-1.5244259499433088,-2.0546969789094045,-0.31288040104195319,-1.4607467783864754,0.63394974298587004,2.3338817631291282,-0.74304368337520865,0.7041438188051754,-0.64096590877491555,-0.0022942219683351603,1.7722160915747032,-0.14170209125987127,0.1423982833321647,1.81166272223594,-0.3641085814830301,-2.0674018307738087,1.305859674021848,0.15965772591092875,-1.2302153700795166,0.55796257197803922,0.35439592704092221,0.87803852426733553,1.4636251878345761,-0.11572908972147722,0.91773126103637648,0.33878594488369679,0.29422485211361071,-0.64002797721432836,-0.33120946528279416,-0.3574259395939649,-0.86968188447164885,-0.76233100305016055,0.25287709760959431,0.76346294449751884,0.12128412078533389,0.30939090199055008,-1.9707376641458698,-0.19605367349686187,0.58711032560943077,1.0217866288661661,0.39331344062731011,1.5907179083331053,-0.365767825345992,0.64541372196740443,-1.4645367229917503,0.63080367309829721,-0.76845214463540168,0.41506843014961858,-1.5212207282513703,-2.1950059206097339,1.2532432371145952,0.17070726590978075,-0.089986791439563271,-0.31850303632439853,0.80629791492070246,-0.053431054493317441,0.556211077052988,2.3042198776299405,-0.20435355963278087,-0.86630930357252789,-1.3262452774531002,0.24496163293193568,-0.050820666387833752,-0.96394458841726105,-0.10701263217541511,-0.14570839886029835,2.7014215728678139,0.15602415569818975,-2.4036165833978753,1.7269459314509739,1.0591865666053322,0.29911768497494867,0.19074361252642555,0.038585105784244338,0.99768317627161351,0.2011445864134388,-0.41804966332196164,-1.1282724178319528,-1.0536875290301209,-0.882687015958592,1.7031069075793033,0.51593112184846845,-1.9176782145986666,0.31176320920961564,1.1258838235966746,-0.95804036424999772,1.0646421871815266,0.58022582274387768,-1.314670909296386,-0.7335174431694329,-1.2804752160616244,-1.5378135067163146,0.11832178631849341,1.3487716807105812,0.84379532684864011,0.50293976926264861,-1.8106064193556013,0.057778804349420267,-0.59437205936606341,-0.09793009783343376,-1.9616686470231792,-0.060236178018599616,0.21319221473323097,-1.1929247269600471,-0.54666768984412994,0.50379000558419673,-1.0766428781785875,1.7705516160564339,-0.81117466233661395,-0.50478743643999857,-1.5136105403150431,-0.22071097005665399,0.85019317678775697,-1.9983475763610108,-0.91924212289858553,-0.19433149707922728,1.5380272997200204,-1.8335988061904134,-1.4272166066857175,0.32649446563110607,-0.47234506842348556,1.5174245493619212,0.55493393746181152,-0.95507769476610194,0.68688681669528395,-2.3237028610317094,1.7007737805627887,-1.0214082380826086,3.2818054762286559,0.49228081919885874,-0.95324560667869929,-1.4715348736898979,1.2995732980322514,0.22577083576028029,1.7243988683292697,-1.2759690419847771,0.33317633661254425,-0.29417838285882858,2.2216322989191082,-0.19769977196614189,0.70330178417520783,-1.1347402976532954,1.2376747038956992,0.98132949972690786,-0.39539550515358979,1.1081671889709004,0.53300105133526388,-0.47605412997809377,-0.45362123871466209,0.77166433655092803,-1.2111116979722771,0.30022255055756647,0.32970199163894154,-0.57947926502387115,0.28378235420143533,1.014934561896575,-1.5332174806778471,-1.3119386309474561,0.36903467864831307,0.58247424594644004,0.70396749851348628,-0.47982622836303623,-0.96457910389090262,-2.7412766516956371,-1.3453297035192004,1.2235847993357056,0.45467434540463425,0.39289353076882699,-1.0692599479807294,-0.018893857956730792,0.3376454123454587,0.47618465491016304,1.2455832384100083,-0.77074781953048555,0.0974687813867752,0.036648358807715581,-0.049380489926900577,-1.6704462200713273,0.97612979241356745,-1.4081569123418345,0.16131167134459876,0.10102054312952237,0.28338580875377184,0.76411207820698757,0.10087558244210496,0.85476072679481474,-1.0039473208087406,-0.33261416100201646,-0.39906559812654674,0.45698463523504973,-1.9893632174774634,0.1234427918610659,-0.60244447146137248,0.0015694121742624713,-2.1580305640050788,-0.13404277569601702,-0.78191866909213359,0.86799360594716524,-0.48910774758903386,0.62470618320482507,0.12281750799129246,-0.96161264823051196,-1.2997961800787354,0.06405704322295451,-0.69378144085950522,1.3556354658460537,2.5107788827150723,-0.17822979104107042,0.66738497022513665,0.47117244447543233,-0.61579780150063979,1.2600240489601651,-1.2436225229798445,-0.70334756181581826,0.40339056445014154,-0.38939766385943736,-0.54276381517570882,1.0222154323189239,-0.1414725135055182,0.83797383734286157,1.3766531452516331,1.5217063124733146,-0.70651982121888801,-0.66431210090139303,-0.62651500133243399,0.83103543483971432,1.3919893675356654,1.8710130868112995,-1.2939463691320383,0.22820569711917074,0.79987444071670022,0.9584222141799148,1.9854235891430119,-0.10011272779491236,-1.8458923769490045,0.28837641962098376,1.9401392998297651,0.038396845594272221,2.4017620133233009,0.32953846955533184,-0.49500996691895571,-1.5037376439172199,-0.99454502549525692,-1.1922107976918479,0.61596724567771433,2.0488791655154275,1.0730152171500293,-1.5237460009660033,0.0830804654017884,-0.22403327761085295,-2.3287797162813533,1.0992588359981248,-0.41254913448354574,0.20940120078282823,-0.73580142138979143,2.7549456881331364,0.51086841650145387,-1.0824307500056956,0.58176757751589891,0.88000893777743916,-3.0889009356029851,0.78095708579734724,-0.90822442486868815,1.1652125932811652,0.41725744335620468,-0.93648585496931658,1.5383728772891057,-1.5980234249724483,0.51288023612546518,-0.54839120259403784,-0.23185590480508622,-0.12040472658588081,-1.4617090589312727,-2.4825840719563526,0.41379905093996439,0.91736276450581622,-0.95873838489109819,0.1081073079100104,-0.42888229273471817,0.75576795981131628,0.36112109243575169,0.92748186197269167,0.19695017387512459,0.10395066766684867,-0.362613007257302,0.42539898137432319,0.23669478947420625,0.13401999209837687,0.28178307003393699,1.3746092966911916,1.3462369806737449,-0.799563507102098,0.71267050759880224,-0.050137970843898524,-0.23935901048234504,0.7383503776690723,-0.20605731579229677,-1.5239600251745062,-0.27644984792566352,-0.56094089441054529,-2.0353412651694569,-0.57682584731968511,0.066479373479096798,0.32613914819568479,-0.67265528157400523,-0.035160842542927666,0.99992271907711194,0.64983886335654084,-0.46369179400737526,1.3566489133570749,2.3998701672631224,-1.1240350767405658,0.025790923100611641,0.17174914822918405,-1.0466068581348968,0.3589276783224648,-1.8021037005544622,-2.3824844119758271,0.49000670359055015,-0.87330835569194287,-1.200425365158158,-0.65292611412572177,-0.68276351657535483,-0.75903739325833885,-0.27289536556509214,-0.76661185464999626,1.9619446102958362,-0.28316773025635911,1.193896792814884,-0.014010774714700263,-0.21296730560551883,1.5193533642591204,-1.2051156415519331,-1.0932875554220178,-0.97455539255302648,-1.1713657507968536,-0.63562425708181858,-1.6496716737911221,1.8291290693198858,1.382096100607066,-1.6850997190877139,0.69699952076333971,1.5859707395177856,0.46911818023640517,-0.96199000155681724,-1.5818449455113286,0.78282658332756427,-0.67029899200073739,0.49349149904415129,-0.16309269507575691,-0.552444397652747,-0.73027257105339971,-0.18893576225842953,-0.86789727249506066,0.65130861849399546,0.12710961812533872,-0.70746543502755999,1.2492212313165707,-0.021686413788493206,-0.096428114043135046,1.6672130164230943,-0.80968286015162705,-0.97089111130702144,0.2919516823928151,-0.88721465706010516,-1.317353902594506,-1.0376780389454996,0.61461689318077428,1.8790844431390459,-0.1725553898111174,0.063735659945002965,0.77900694336466703,-1.4092702216173538,1.0092237779086435,-0.50134793579823111,-0.1791963222582649,0.60534988168308679,-1.3497631000085812,-0.84060339841162612,-1.2962237310627283,-1.1283411959792717,1.3476188057047442,0.46311264611652964,0.059112433727795129,-0.66040750497024703,0.40037435815525035,1.6932747812186379,-1.3390545041164905,-0.21709919828756272,1.149495164388628,-0.50961869695001161,-0.1808673731386379,0.68957228435499829,-0.14508440774322409,-1.3261341484796527,1.8970061054572893,-0.54117449984738719,-0.22609829134109644,-0.68135566728262731,-2.189020680808464,-0.61598972301836052,-0.010148240046080805,0.80604372729973872,1.5196345577952144,-1.4797880499705633,0.56637520979337364,-0.83663613212003829,-0.20917629652025199,0.83245572805110513,-0.71109353982864043,0.84834129728076613,-1.636926845405654,-0.81602593023005476,-0.88348238376859689,-0.23339283229095067,0.30546544468003078,-0.1611364162015817,-0.14739189366821517,0.26021631933628131,1.0070598938342978,-1.5842969673816338,1.1639650771257863,1.3529910433316523,1.434522629125923,-0.50146962977442355,0.54393274561181282,-0.24856489206149604,-0.13995590712674866,0.36701200553855229,1.5975016743340784,-0.60980540123779348,-0.176782222202235,-1.9758154169455027,-0.64127749076101603,0.830189228029514,0.91523944786021783,-1.3837060076981407,1.8606996691204076,0.42911319099874423,-0.45683745758521271,-0.53223160885574872,0.13395622714439226,-2.1691084146088713,-0.19182064298290941,-0.0064946815033389534,-0.05958979979916304,-0.4001306078293157,1.2144334045336289,0.16855168280154939,0.033606046116475947,0.3813339453644134,0.35322715260164406,-0.29253072457583024
-0.049515374536795623,0.90574443860741416,-0.95218062144405691,-0.61777835430860795,-0.32938397352296783,0.39779432974551587,1.9039324699641158,-1.3268145999443315,0.59026751870309646,-0.85142282126235214,1.0272575261225259,-0.17249418513480042,-0.6945221819231594,-1.1580172183722934,-0.29826264663822932,-0.81241247077747247,0.28131514412905267,-0.61032253466358866,-1.0404898130461511,-0.29014755691644178,-1.966718686284189,-1.8848561069399401,1.4067011766668804,-0.034056084511345369,1.2800967389034024,-0.48930193559121127,1.6149690143045885,-1.16073678990707,-0.4762498472389376,0.53085291052188055,-0.87367467053323389,0.96280223729551639,0.5619124195148204,1.2153623014195636,-1.7728312128376509,0.28758578818325647,1.2489446600779501,-0.63068481846158131,-1.9997647498108175,0.16504768533034989,0.010795966363664925,1.3164210929627467,0.52866145380607366,-1.5166321318309988,0.68908389087582533,-1.3962963551081724,1.3384987433249997,0.41090903268356416,2.1837869140381971,-1.0750068181474011,0.46862178963480067,0.68555443523514414,-0.31009163124920064,-1.3185871797028412,0.83139159497869541,-0.077115668012977812,-0.84457923295696846,2.5944273663347532,-1.1351318302024909,0.76064752635961863,-0.85563717965837138,-3.408583948659305,0.26789994023379199,0.54420240079999593,2.3045446553760738,-2.5907834984689559,1.9011246041194114,-0.93432484322511133,1.2056748578695875,-0.087495552942522758,-0.14917795514688595,-0.71879453433413643,-2.2411771880726308,-0.16380435061453194,-0.31792238247909288,1.4659528540304743,-1.1062242028245812,0.059361582685068547,-0.085465938804213701,1.8748629866066071,0.41774811130303313,0.58035862035773178,1.0388457637760999,1.101887423395681,-0.75011295748622719,0.028748063646889539,-0.82160404942185394,-0.063697882470191564,-1.0459979105783876,0.94251412589452577,-0.39208261575353232,1.0914235625088529,-0.89015395758293159,1.7753812675667167,1.1137697628643111,0.8083045567940873,2.6285742912356675,-0.78185054610922233,0.62450811150395746,-0.51927218627896854,0.56692568084679318,-0.90932453037146221,-1.2999969333262682,0.056724883039913514,-0.50495745311663776,-0.80494366912914139,0.74383171562078465,-0.17291583236789482,1.1982036202736395,-0.96342368952837942,-0.026396728574157279,-1.047586063704582,1.1520682242983242,0.46664400864171035,-0.24018864216716884,-1.0985609932587459,-0.29522418000021672,0.10468587066712495,0.64262077637142123,-0.43014948757704968,0.048438860219144841,0.70131673991204302,0.041624984167521188,0.59656100500498577,0.70171009062398437,-0.14322815582838619,-0.53089937344641658,0.42491861291908323,1.4892086654061802,0.19456381669198736,-1.7951860768411025,0.02607703782845747,1.7290288446274305,2.0179010628037553,0.8075376495578519,-1.3194036229636912,-0.6452159732441356,1.2253315805005962,0.54098048033996138,-0.83030456105122774,0.27736722248388263,0.12853381528953894,0.24554152305441809,-0.70900795026360275,0.61738380038935148,-0.43935423037427529,0.39981092713020899,-1.0887617980911315,-0.31623111401028464,1.1826144982539952,0.3792424334943893,0.54721467290577142,0.075465850214068972,2.0800884415914642,-1.2179198424075204,0.94743688015431038,1.4526514656880192,-1.9076674603486112,-1.3063942461178664,0.46348601802533657,-0.12532682182471896,-0.32083188206448532,0.49812240646092626,-1.6692118458176632,-0.5476824549122018,1.2370072147648787,-0.29211907885409599,-0.94170172400141805,-0.67990579486914826,-0.43215794017951814,1.6454512907246484,-1.0210731868750667,-1.5625001804279242,0.38803065776887941,-0.66841842343069025,-1.9521982361308894,-0.52273415002717527,-0.50635915060299042,-0.36284878004088389,-0.9731215641568558,1.4643404626588012,2.1013055007301782,-0.11612589046896588,-0.12485644503897642,0.59831968465108298,-0.12891499835667014,-0.027551498171708509,-0.018510398902192571,0.7456102924480007,0.17289845652743413,1.318867097155908,-1.2870000009516476,0.33599271197691344,0.99144556549983642,1.3616193850625962,0.19636553064971743,-0.23367628488676623,0.28163052430541491,-2.3483440810057838,-1.0355621555890753,-0.52286315349190338,-1.1875426364557893,1.0640496814183382,0.031624697035846222,-0.6465715470134783,-0.35883463161755602,-0.18314807529296959,-1.8908570352167469,1.0690150017554867,-2.23796804215988,-0.6063709886878762,1.5364938577106786,0.27038489993540449,-1.8499194460530031,-0.58836477168620938,-1.1225086533376343,0.42793916042019137,-0.63009538825868505,-1.3660852763568161,0.52458895903812053,0.90840658563724019,-1.1352415443069817,-0.91197787808529851,-1.4595477987243883,1.0800894546394264,0.72432583471879475,-0.44200171693504819,0.96132971521633825,-0.52292567458224071,-1.3669290531385625,1.2709803122136631,-1.268434759687497,-0.68933336744023421,-0.67940549181822152,-0.60334684617784828,-1.0506951801591105,1.2983398676416875,-0.37546178832122795,0.7430271988609477,0.52112182346720537,0.47529542713595707,0.26035267198195666,-0.25691882331671589,0.47722258841815618,1.642980410776915,1.3816929681378463,-0.36122313609420575,0.14619605326925297,-0.24197636793263949,0.37316948706378633,-0.42797402250803757,0.47806565954126229,0.94195200252012234,-0.0046233318644840846,-1.6944153900682277,-0.55285005350688443,1.1495384641912896,-0.33015894126797768,1.1906004645543355,0.80825181242061084,0.650346062616039,-0.11725585011025343,0.13426566748027016,0.15516215279496487,0.70484685968823069,0.68601793128462119,0.75803976293941944,0.099902058246905456,0.2459644131353621,0.35101785872419983,-0.42079967558566284,0.46978265860097385,-0.07002393280661344,-1.161722404291444,2.2024251583371419,-1.2287407559842867,-2.0059132071055457,-0.44632582005445898,0.49536250976891988,0.28600913708535014,-1.0049515857185092,-0.14017591491055509,-0.62890578110246298,-0.6968018725294054,0.24628604723763542,1.9098146090696984,-0.51419072027450163,1.5925511195964668,0.45533350670065104,0.26920762806615334,1.1980683950682656,-1.3803304303491251,-0.26674905236065305,0.85884150702541739,-0.78577084856223067,-2.1356107584261212,1.2180938470539129,-0.38312256677456019,-1.0815322302652097,0.95580376670453449,-1.7650550329430388,-0.25422933316763086,-1.1539369200682172,-0.13201956692260791,0.12860419689103225,-0.13519851306553068,0.52815714936025338,-1.1739405780541958,0.51306063861331797,1.7380878200677046,0.5543457159499986,-1.4203962678314048,-0.39116914782240281,1.6340581714148628,-0.90700965803169475,-0.97286037909372702,0.49563232405276975,0.94930673518665765,0.079950130050508203,0.59798438607102722,0.77387427507635365,-0.69852396497747904,0.83324677625419008,-0.04760864148756036,-0.18142206672426475,-0.29051510388985985,-0.77191413419581001,-2.2853742819518597,-0.60466105665828895,-0.88480533989373811,-1.9254609988196039,-2.1582685039354139,-1.0387406734903197,0.07814716922701305,-0.80752797875200633,0.09211256564805588,-1.4359480090980878,1.3936279057686336,-0.60711161286644955,1.3567734976433456,-0.92392316290069509,0.083996950380180013,-1.2244960353760974,0.60442069454255276,1.1723780914064561,-1.7296458830392636,-0.43229141927729275,-1.5087473894022545,-0.079704176168375038,-0.81016788863702338,0.27366131242941433,-1.4356466721063805,0.63358083487430994,-0.24141301530645407,-0.73592259006381255,-0.57274544058719012,-0.62104126569957341,1.6846752318062039,0.25291207592132359,0.96257888196832131,0.30067321378852746,-0.30077260445675391,-0.34739471440330782,-0.0034218185218231603,0.5181350739498225,0.12803518402835146,-1.0032227441743415,-0.62727433560903489,0.86724165470286918,-1.0406757724710685,-0.4093337766862587,0.18179932621467418,-1.2426640304981409,-0.39590520310980998,0.91180447158884381,1.4797485717798498,0.6503191461311556,0.26865713454192458,-1.4734379448486903,1.4092153406558072,-1.048985993439808,-0.34594748358134669,0.59013221863845211,-0.35682462079267285,2.1143487249140738,-0.98505162927526602,0.22762887085912131,-0.47242069037186973,-0.53325864607419737,1.2159760141475173,2.489975330242828,-0.98975540104952475,0.73630409250672668,-0.019499332017717103,1.654885620571235,1.7431293382736641,-0.65779232049772407,-0.12171540165174496,-2.7035278948195267,0.90278934176213932,-0.67355662025053975,0.15148773971043572,-0.76345908457929923,1.3358586070622038,-1.6074946763182729,-0.36859771293642657,-2.015575931878216,-0.075421235019859159,2.0586150163846129,-0.049564110598053053,-0.03189870398987997,0.54098215921106962,0.87395055346383044,-0.1853194569326454,0.20441928621792521,-0.71925153650400919,-0.89915144444673356,-0.90489488719421685,-0.26702599542821698,1.3362383558245401,-0.24921827544238054,-0.27329664805061482,1.1000976807688443,0.39466117859986743,0.18413877104399756,0.10714625772929673,1.0134776543397688,-1.261798798312022,0.78740779827043572,0.37438294576466435,-2.1490160882307214,-0.62433312845202926,-0.43106636232578571,-0.78746662922855903,0.039042900811676849,-0.31843276924360492,-1.3691459782808464,-0.30404977310568709,-1.3340819147244771,-0.23336272767420865,-0.79248503736244402,0.7990448212196728,0.48518844660338983,-0.65193146064640306,1.4635741274498089,1.9656098447163635,1.3672423526413946,0.657951207333763,0.34396846208234372,0.39772174816934802,1.8197110348322203,-1.1816976087986097,-0.39525825006152349,2.3529272531246748,-0.86823398027986565,0.93023073707284909,2.4504538071144228,-0.47648415117542536,-0.75716834694017021,-0.6774395260699404,0.64647337248086434,-1.7186442666204256,0.81082929297121198,0.66115293915935458,-0.10395289773386401,1.069172726332394,-1.4562398822097811,0.10406892167126221,0.10887331624251641,-1.3757349217318007,-1.1568900294524427,0.27812622143710858,-0.38447660161455427,0.46295946399506338,1.1330239481670701,0.70482265685318168,0.4302710043590513,-0.17949107439829753,-1.8752602611939579,0.67655003237135503,-0.88773105649143624,-0.98576749554190946,-0.092145746747033019,0.26837053200161909,1.5047837067304022,-0.1742542595639123,-0.70654343855292989,0.66650298813351627,1.4413523088324409,1.7648315421610958,0.47606486544985926,0.12986366225977372,-0.83223455147894787,1.0873230336968949,1.1459994286636008,-0.28381803626554769,0.50889739739205253,-0.53737879272535605,-0.10095284722966238,-0.4851739869503412
0.3996907303067273,-1.5549315454483379,-0.57908703599133682,-0.79519291671339176,0.22433743888782506,0.46363654719027664,1.7375234734684191,0.57436315804293414,1.3279991352205269,1.1295799247047609,0.8939474502489696,0.66211465904436151,-1.124440127313997,-0.14471447816837338,1.4136299062721136,-0.58447610514392001,-0.43643833137814403,0.0261125350197749,1.3648612656472823,-0.79773992569405694,0.39275313079130725,-1.6491388242389706,-1.2634849140504936,2.3407227766994874,-0.23547019123207913,0.43098105131701903,-0.86203971822169356,-0.47105435589441846,0.45448449149274428,-1.2357000540648444,0.74712217788283852,1.1838245819302544,-1.4620927746440207,0.49614459456115134,0.033958057760940331,-0.63241723726846044,0.028690107923495085,-1.1517873339049698,0.27143638564713585,0.50277212458687903,0.72331111559369898,0.25708056719054384,-0.11602404552915856,-0.75044049357229381,-1.1836807714158222,-0.069174399703615899,0.73204166729847386,-0.29027069217496981,0.50606806858394804,1.8210921498849038,0.4275266924669624,0.027811715354982287,-0.04620546843318097,-0.81531431227466489,-1.8050737465984938,0.093286866182306152,-0.87385211445696775,-0.20043452355814073,-0.23301616894709928,0.73053981066054219,0.83848309960650103,-0.25217491899501054,-1.8135128362827233,-1.1187174028480131,-1.8988043393407779,0.83863117886368976,-2.6262510107177461,0.6808774787180627,-2.328599071311801,-1.3077499939476138,0.4362317066756104,-1.0937677104648376,-0.97936738771522125,-0.2574960170767065,1.6973971256570781,1.5994281854599803,-1.6058098576819928,0.49907092620825433,-1.2548204147847999,0.27341551122164343,0.89911840064306414,-0.87379128776377368,-0.070762224791989278,0.19361446062835563,-2.2286901367320744,0.91231477068359312,2.9071993341649569,-0.76677478139307709,0.86059090696927976,-2.2026921281569911,-1.5819032727230451,-0.88712849760407098,-0.40496215104523092,0.73989133313537414,0.64741626533331753,-0.2379047160195705,1.0223782721716663,0.48024065108415243,-0.27220063192360211,0.71882125708411659,0.51456041557882692,-0.0042881908522556089,-1.3664875675712509,-0.46821777903148776,-0.27681555123372253,-0.67667864365738739,-0.071308389116075246,0.57079486302397164,0.26363827223375458,-0.50074977429722067,0.69695130155350216,0.11547938600990608,0.56715137749120448,0.90817432688974542,1.3175506037979308,-1.2600798081082754,0.80206894926657235,0.51575553180222466,0.69084446017487033,1.1593327650481582,-0.46665165364262473,-0.65024063654065445,-0.2330778271112848,-0.96424461520958971,-0.35973566659067185,1.0557907180135524,2.246470106698303,-1.2098622670278685,0.44514645138392783,-0.041925174934292847,-0.020820105130610944,-0.21571459052383271,1.0418443957693369,0.33715905029303295,0.21408348198400035,0.35874185712993611,0.37326467915504874,-0.79261403210102066,-0.19284988527102689,1.159952276483275,1.2974861693392163,-0.24078422613346911,0.27289364864333643,0.32194757869392232,-0.021573384625515873,-0.73245422211313282,-0.15748750742677267,0.94164354520046767,0.872376256973867,-0.51828271690076599,-0.25465260868978468,-1.0450358712480359,0.56651575769391549,-0.20120777110598148,0.40849304248358936,1.2010977189403322,-1.0479639448723617,-0.15062980071201584,0.1803596558879709,-0.86648044082240971,1.2194913104407517,-0.67495962848372337,2.0054882964129384,0.96554675376710219,-0.71769114384448907,-1.883229824008545,-0.030096563937319767,-0.71973712675892121,-2.1493284975910809,-0.79702327242566451,-0.45806443189437074,1.0629967921834294,1.3864485774656974,-0.049382044497238667,-1.0769386640225078,-3.6912159699968341,-0.16056185938981732,-0.58076558749810547,0.21716528671291477,-1.5566395498464982,-0.2688779793616824,-1.1413329541464632,-0.42306965437464278,0.58547695406482037,0.72746891876624087,-0.37111784713367002,1.1081518872557103,-1.0378299383575258,-0.10314613465620817,1.5928161735538531,0.45302724738661759,0.38425218606709699,-0.35197072740108959,0.14775611954932144,-1.0145450240442664,-0.11027731663297809,0.64084168770304006,1.1834811268629761,-0.0070630213226998131,-0.011695417861439716,1.4261233613850022,0.82339760822049446,0.21978308219875736,0.80743616642687877,-0.28333256850883493,-0.45900721090600383,-1.1084006966431634,-1.2965570405205833,0.44205781606734112,-1.9860320180371862,0.014161851475178532,-0.40931435461314092,-1.3090650168188411,0.14176237545040232,-0.14394507099190476,-0.44453970586696628,1.257092961880383,1.5406557291360614,-0.51261531991603482,-1.1181228531800245,0.83754087443702441,0.37496217450147906,-0.20257171301245316,-0.64213985831756537,-1.2288784859408812,-0.49842530626748088,-0.94730991481080551,-1.7706647631369297,0.36289734138951746,-1.0615047276663343,0.052207943262591164,-1.0648793052577443,-1.2317900727933648,-0.39779959294973005,-0.68295653466989059,0.40500274974074774,-1.1902442970997886,-0.18945745869703837,-0.14464659457231663,0.5483784624433119,1.1997799737104911,0.39413916681674027,0.018262262251762886,-1.4928296032862851,-0.47867232253900066,0.27448070310621531,1.3644979356731675,0.063172726367479767,-0.066465623275043767,-0.2707508400299321,-0.7662695435891318,-0.15093405884312089,2.1642899788371035,-2.2051158226806473,0.67291960144131524,1.894061072422182,-2.1498043713054287,-1.0059977798901574,0.097055843486178087,-1.0499786484713871,-0.70134496412760472,-2.4016169650072441,2.5165842900311688,0.96967431845551399,1.4033720598331616,0.33242482155776626,-0.047446920045253776,0.89512238757798346,0.78606246086253717,-1.1264870815670658,0.19102955551828665,0.63766883127026686,-0.43495338963624736,1.3487064837324179,0.32540071534852344,0.52908602978926589,0.58020196673717117,0.16030919438890362,1.2278512004773499,1.3144322377683568,1.1790724008636444,0.41292552982003866,-1.2463312022872282,1.003985654784038,0.043703160158232182,-0.4786031828452762,-0.084366218599366688,1.2156453379655781,-0.51877018774514572,1.6782026509716994,-1.163490251913222,-1.4726154543880881,1.5631955305557896,-1.0625777930271409,-0.79843104209793248,2.2915312711503497,-0.19492478073130795,0.72403545056490282,-0.0020016422589618607,-0.67581094440305078,-3.1455139046220402,2.1467974737654254,-1.7009744547581589,-0.65927925262728215,-2.1907635837175037,1.2850928303140314,-0.94836565066808354,1.5868913982740616,0.91533968264303278,0.81583159764624935,-0.8494404978015313,0.54270757991847962,-0.80533291897937909,0.2298481893134213,0.69521652232953235,-1.3455686584543918,0.74436573322417376,0.70516792291881136,0.22741920492714504,1.2847573245602908,-0.43503477105686345,-1.7339707520860754,1.094071361173611,-0.15030607653399344,0.076848832076608073,-1.0098329647767923,-1.3345565558234798,2.2161021092464979,-0.44474286721004974,-0.62735828747699218,-0.089787691559315319,0.70278850040914298,0.34724051841495218,0.57030740193692719,-0.44544079087742561,-0.15888838060459387,0.93400546747573165,1.2462626359811844,-0.84360080423628148,-0.83754375047431306,0.99705058329969198,-0.60395014398405289,0.10673840693240036,-0.20106766780039242,-1.3292547249381994,1.0768079277256455,0.14291074893392833,0.58868586944427215,-1.3119089256642591,-0.27598069177124118,3.2045743085977461,0.096026025057247333,-0.54072965556030805,-2.3426000898386086,-1.636624343446472,1.2293973803787694,-0.64880897702011397,-0.23558565710385279,0.54386097523395538,-1.5380692464843926,-0.28330890894880101,1.7833618589855735,-0.10003236916814497,-1.505740921791054,0.35237105394656443,0.45483985530312682,0.44959209326010352,1.1295423234078872,1.0792386316925564,0.041653140478111229,1.0138336964474364,0.71957634226609746,0.62545392245213149,-0.63966779865094647,0.96757864777645264,0.76793135950268832,2.4934295450039303,0.44654277549260918,-0.64107436683547747,-0.44622205104788165,-1.4318822300983751,-0.90891585411073739,2.4012645891324511,1.4241627057135482,0.28950208311589387,0.62453724357803497,-0.016068213376850861,1.2109827771542518,1.1646329097370485,2.1647353952906343,0.69991265950845005,0.90275702230072019,-1.3817090523743125,-0.12497607793702213,-0.34629877484222504,-0.85663834043674414,0.62395192290778012,-0.23902815767957103,-0.27606027085611939,0.31734573303055519,0.066020847699771332,0.92942379256874652,-0.37548280554217328,0.37717187005899461,0.44454499598414388,0.32859684313920934,-1.1391721667805139,-0.062869602732785246,-0.43800806188447239,0.13876008492504815,-0.68354882827141161,0.93559265388686075,-1.7904159085081139,-1.0147343963072304,-0.6563416152264927,-1.0690004616811644,-0.17369878981492573,-0.77255092356383337,-1.4658604420667596,0.23830514259633132,-0.8469745249366103,0.64008145953244777,-1.4291734636961839,0.32423504009028203,0.20289820143095169,-0.64815018570687344,-0.16982341107351734,1.3869687285538694,-0.0057580431380568611,0.54595120693897248,-0.41283190792715141,1.0014206015971174,0.73116309856522821,-1.9404255549765097,1.5513273115678208,0.22401767430701738,1.514777653555643,-0.87008021816281511,0.72753960990669098,-0.51950782454075473,0.22851375203468624,-0.63547492104972259,0.52024373196155749,-1.6515311615152033,-2.2448772722840626,-0.57457288100041648,-0.22033573896454062,-0.091725275489904584,1.20160603171487,-0.20625651976623482,0.68480765386909892,-0.4252285054177658,0.51676928206509987,0.26330358248408758,-0.46822901762226599,0.74897790210203774,0.64511352779232478,0.39589094218658988,0.26191965070786438,-0.75915243057733228,-0.15828203168402491,0.63944449321325703,1.0667840082930329,-0.25077972374299573,-2.1976438414167374,-0.42607885326011169,0.90679899498341987,0.37032784330736523,-0.41588104941811599,-0.2690928164686115,1.8270322531283276,-1.2481962307817953,-1.3449265363709322,0.9078054594740772,0.19513216756401172,-0.12206359094668075,-0.86781989506823298,-0.069401814393612996,-0.35072237735164863,0.26260319089858519,1.4291478253118732,0.83458136995913024,1.5295900722086382,2.2885711904012309,0.2021220345559733,-1.2043507865801599,0.53764203742005257,-1.0508461850600677,1.9115770192152153,0.92899821365482271,-0.22161869580421478,0.75997279911458626,0.68803967941065136,2.2056462508440289,1.7293712823728697,0.58611166828482031,-0.7567709354366835,-1.4823437094480028,0.30069990684658499,1.6986973492721911
0.85681228432345657,-1.45288452341255,0.24856276094185803,-0.28683476228758992,-0.68003481957271861,1.0605375226620413,-0.29712650834959664,-0.67326033976660971,0.16284171920997964,-1.7963016909878455,0.15420357635111992,1.0507733212452133,0.38309022681539423,-0.17196824826614207,-1.9919115338988,-0.35615730150378472,0.31648570314704233,0.58223651144427191,-0.19789668719742334,0.39173057585666532,0.60679126635358926,1.7843405833802659,0.84924384782925666,-0.37189980972889214,0.64877534584601382,-0.31187586059980826,0.19648925995678132,2.1801731508532285,1.2577796202567804,-1.4549154401924507,-1.8476998566208904,0.099173130450097832,-1.3212172476335418,-0.96797894000611528,-0.72481653905558896,0.6503517096523076,-0.28477845343672964,1.360044771941977,1.4693628432090777,-0.080311749916933906,-0.87262949653977562,0.62255675184025228,2.3108249730642076,-1.1203766774779544,-2.2836536392867535,0.24708084843159014,-0.4681363771220371,-1.9269121319977023,-0.064827115033846042,-0.23435705692151651,0.096516505393526283,0.78542450875170422,0.89943432695602865,-0.075787075125689607,0.014425680485027062,0.071064751984104113,1.3825221627397599,0.36330555823540611,-0.92326567181196184,0.38424283653962982,-0.044686738355047231,-1.5604786222768978,-1.2378147600674467,0.5422966550659617,-0.32790890915121379,1.4608843008209198,-0.80481200028297961,0.47607598553194153,-0.69528149568903319,-0.83849066173900566,0.25653661685380397,0.16379202296105325,0.71129492445739761,1.7554430493267401,-0.66446923888626519,-0.63507549550344955,-0.011293843997656086,0.23830717299709692,1.0325175144219967,0.59630438847087885,0.01805405303489856,-0.34768827328000568,2.5919068327701775,-1.1993504900557272,0.27696503897981217,-0.42947098254438387,-0.82310538695370283,1.3011404986385244,0.57637449476082381,-1.2753435250118659,-2.6981770008527723,1.1708390846170913,1.7655133923517135,0.80321254414079457,0.65663497940137405,0.87647070211540878,-0.67832444816415194,-0.17881145885715347,1.5421560628170201,1.0329688004877149,-0.65926766019399841,0.12601835432988398,-1.3245848190171707,0.93906052971464649,0.63001857093500646,0.320095513932173,1.9953704532012615,-1.9026923674486806,0.43650640589271278,0.63476540804667958,1.5227242370207301,-0.94397244726503726,-0.39118062839290496,0.31933550825719814,1.2330095351803634,-1.3251015737266416,0.43106757357521486,-0.077508720907282225,-0.13257413262161113,0.6380054390065184,0.97039271322623066,0.40216898468207218,1.2056469797201756,-1.1660875201768401,-1.6856729388185128,0.20169720085660253,0.4667174845685475,1.3369259660352795,0.17649880271573018,0.55579836969639407,-1.116926472690134,-2.2237074650561803,0.14201302845973596,-0.65748178057754214,-0.81668792883504671,-1.8041873624406997,-0.48482118540845609,-0.9567986936160815,-1.5260744492568079,1.1370731054964311,-0.57329166807906395,-1.1143403273148387,0.37081612233087702,-0.3055443856790872,-0.13904745748472688,-0.08877640835202831,0.93023190298389546,0.073470399856406202,0.79347324687745135,-0.81439990388364569,1.7508806763830096,1.2852597634799385,-1.0371493035164274,-1.0138031357123976,0.72081659498811634,-0.09415451601230726,2.2232243484418821,0.13309373655900797,0.25644178508351839,-2.140672109412864,0.3839109338010393,-1.7202942979573728,0.044001122755402432,-0.42846804986917453,1.3723447607639727,1.0446819340364155,0.085189245058962193,1.4914379019555568,0.97662198684321855,0.31706645747329765,0.87854413032306911,-0.51136855897753009,0.048306382222648533,-1.0205592662403054,1.5038101776759067,-2.1661151547775024,-1.2540265745740182,-1.1509510655410813,1.1651584909398949,0.68233269954410425,-2.7897973084334184,1.3616227916848946,1.4016930145685089,0.10818930825740586,0.54990215460148928,-0.57317537333584245,1.2043924725446356,-0.23905294824783507,-0.57957315810792287,-0.32024579688802157,1.3039600523591222,0.25356460841289663,1.9811173507057562,0.97990103339887169,-0.28381631179775019,1.404198342367466,0.36691408122457286,0.37188998098771964,-1.0575082231342934,0.13378933111799887,0.092729232685990245,-0.81539417630460576,0.19945132568463816,0.65044635127950745,-0.77164930162120626,0.51103456557299687,-1.3679774440129604,1.613903221982135,0.98277432732622638,1.033505477986403,-0.076022587208648282,1.9356704970095555,1.4953009646172837,-1.8201804131165304,-0.60538253088898319,0.028598907158409695,-0.32666083434737331,0.5147049518292206,-0.50385348871099123,-0.50097107078509806,-1.5161547820414722,-0.78763301235517835,0.30463264860689077,0.77472432303453198,0.91912966633215842,-1.2099631784286817,1.5749594353496363,2.3523546145397329,-1.0468558134302526,1.9111126033848214,-1.0284207206417324,0.1958516015042234,0.7824943453665556,-0.49096816006688326,0.60529985775832595,1.6729054056767045,-1.307191987925882,-0.09912125539460781,1.0865670423061129,1.5023996204480914,0.10908291109381764,0.10519315017921688,-1.2864095536874993,-0.97388936081878275,-1.1757919243995183,0.55328367779673249,1.0353641996481282,-1.192173299577268,-1.5006718004686019,0.4777305334722749,-1.0284311936096426,0.36548854259932279,0.12700354578011594,1.0032776669435544,-1.2865996136189242,0.25530754784347887,-0.96049507097145359,2.0701456817131536,1.2047572079119004,-0.74528354081342985,-0.97198195163628787,0.44127842127608441,1.8886484137078621,0.22537553691319059,0.99659456079446551,-1.0225208584604222,-0.57602464816886489,-0.5130117891181748,-0.11891851320407959,1.3087825497132461,-1.2086773419943617,1.5827912572517697,-0.009345143970375714,-0.28958481333128794,1.0324998260968954,0.21512391195839123,-1.0854941086691636,-0.76788016932259118,-1.9796771590289692,-0.88526328836626333,-0.31514123853488651,-0.22048246550548004,0.095833352082063214,-0.87890048772937612,-1.6195942891823425,-0.50566749486585971,-0.078307546802141859,2.2238032524383482,-0.42259526911282835,-0.70670105528287452,1.0562684211411564,0.62788397474519997,1.7004274744793217,0.68558562122853917,0.35176153051123937,-0.88126008914240861,-0.052886797007643441,-0.73046971698469998,0.17952877103721462,0.96933533399737071,-0.22070652315166889,-1.3672115314568363,1.6510277235748525,-1.9130722010016046,0.4238182492166806,-1.7377971128245548,-1.6920551736104903,-0.029214698888649214,0.82860946496697618,0.37293433629899247,-0.58023582757077374,-0.25104670011478147,-0.20789683793738237,-0.52572240744718479,-0.33072375581874675,-1.2848142147643933,0.12524281250378683,0.51021463143607992,0.99282698911865763,1.4278224868806091,-1.0936910058821219,-0.48792801414847925,-0.65611369675228293,0.30664346728218911,0.52472738679345765,-1.4468368442470816,0.70876379866677774,1.1717923475386531,1.0213577061692458,-1.6031513404206053,-0.06430684391927366,0.95953423793878656,1.2547697341172248,-0.57475692714058257,-1.1806436406736902,-0.92479401212544365,-1.4128976510515059,-0.44586317828147637,-0.78305165202028204,0.50484251453772411,-0.60379783750394278,-0.43756271513961226,-2.3862854603768091,-0.20215607505143524,-0.15446348987061884,0.076870509842258336,-0.54994451767604868,-0.91190532811456859,-1.6578410402875809,0.011889343780015748,-0.051690591430184993,2.8503650747478608,-1.2165996502708403,0.062751142319846825,-0.75725957629385976,0.16983215279635341,1.47387610660215,0.16744679188464368,0.14672123044074531,-1.2231528099981472,0.21217761912541605,-0.44670956192889133,0.26680785329268086,0.31459912231907938,0.69238842272424084,-0.82893279903784856,-0.73592328893591985,0.1066971243792086,-0.27864964616605614,0.11701586992319232,0.73701960154469159,0.043335374615102923,0.47656589676123046,-0.81639561185230702,0.60386245249128168,0.54590123559584813,-1.2529902925979712,0.47941791016427704,-0.41192466718398496,0.99085253940522944,0.24255395369169949,-1.1020820873542188,-0.46521504956545506,-0.51744092787944718,0.44293229883737861,-0.46751614366527844,-0.30920424916954109,-0.21745404666924842,1.1902692628729445,0.59132156055707308,0.75081218596252786,1.0722149387377704,2.0036205405630767,-0.096793023194357133,0.43045733694979177,0.6370737895443348,-0.0068788815595195278,-0.76288029127024826,0.79199366408315586,0.075944438519240334,-1.2259017431396433,0.48849005556154512,1.9669104129034118,1.1634215485736452,-0.29544978247843062,0.52153084329566235,-0.4478138532881365,0.77514792459947057,2.1578031706669325,-0.27721531968213564,1.6571412219468857,0.7300209388600466,-0.13637878213464971,0.71530955782721317,1.6690696618314846,-1.8829275261453802,0.74227178348034217,1.1161662851363436,0.87724994657152044,-0.72349634090841197,-0.070704815992069181,-0.23158191197923955,1.4848223785139469,-0.29206270070484197,-2.3381359338873038,1.3765984639588809,-1.8552205869053044,0.48070506384991596,-1.4472070523905709,0.90001889138276503,-1.3785749721681035,2.1868673575985804,-0.024939952981233221,0.30296238537239201,-0.59769070778548306,-0.025087158463151793,-0.35580818312280876,-0.036550322268881538,0.1220454541370221,-0.49662610777582905,-0.74313605673012595,2.6303836899067776,-0.023978943261006504,0.59130642231744757,-0.17067123826213837,0.039228313831583136,0.78734634383480906,-0.10491776873527205,1.5271795661261496,-0.84558549503864344,-1.4983002193294455,0.68012166888457892,-0.72890093315693505,0.32521599537371576,0.78013339601463139,0.080334011554913529,0.32554878217540684,-1.2368059511473402,1.2474446808263666,-0.56363598667724668,-0.39576508248992759,-0.45165699041676849,0.2856332548850819,-0.15086641986088387,1.2435258057141489,-0.34346436892812954,0.70456062114587126,0.7749673234125628,1.7265797165571286,0.51820713250371131,-0.84424524593775085,0.87076632045057678,0.24824049510419238,-0.28728356388514381,0.63827271368093386,-1.7372112700890106,0.15540497073739143,0.031696335701785899,0.48811220376725462,0.1614860781445169,0.50265322015717939,-0.76857750379267153,-0.26876914452021844,-0.72122094367126266,-0.96158310452748907,-1.9383601672032524,1.1825860558811883,-1.2988654329428788,-0.70084045083181268,0.019155018690957017,-1.4875828491463667,-0.30659173219984659,0.037999314511145355,0.42170046322090882,0.99239274650191911,-1.2107094213276397,-0.0049632899681895876,1.2555964723933151,-0.9646673169177421,1.1326681773340939
-1.0176277664699664,-0.45768014409414376,3.3227639843640873,-0.68631833807825349,-0.63108937495806805,-1.3048946344206638,1.0021294808448427,-1.1633682212314029,0.018904198477258174,0.21661664796895194,-1.0336335221329076,0.19950425665785584,1.601456697400351,-0.0052642382940157736,-0.76814163122627832,0.68113003994734644,0.95570131717019668,-1.0479739388144353,1.0027153468678638,0.71143718715338566,2.8933592623184294,0.13796248482829138,-0.64433301843367397,0.18745510321657205,-1.4001563079906023,0.53342113017698267,3.3068659371758002,0.23068606609796272,0.59379183979534722,-0.49865606223584497,1.0761151649357548,-0.23188098569688298,-0.82867389380877043,0.93582822940698651,-1.6860427508481561,2.2105773907437527,-0.20964958818843515,-1.0042118452855546,0.00047284903335993321,-1.5715722095935063,-0.33959448410567994,-0.88856180469905055,-0.46020909055260967,-0.36410356550249134,0.57252029512464009,2.2951074076535951,-0.45722548649885353,-0.013329243614238614,-0.025945570968078827,0.10938484404370299,0.23325178196733007,-0.79028847062752583,-0.10014512148682693,1.0725260829969563,0.43224119759873175,-0.19713623768037133,-0.27416978730598573,-1.3003524704309686,0.62498746395698013,0.83076374927301533,-2.3575461382041203,-0.34676440370245787,1.3908952299880348,-0.20694804438532607,-0.7656037491096076,-0.016212430002849755,0.50060582265157638,-1.5140289955201438,-0.20701752135257587,-1.1316301946099292,0.27305294626500404,2.4207010856767286,-0.69719031850256807,-0.10900093588011378,-0.12391171707174709,0.58521501636055828,0.3899696883014952,1.0482929944980377,0.95434852193267727,-1.4533207616316812,2.7336063315077852,0.83553727981968395,-0.8967592499382343,-0.71393971880862983,-0.049648980479764966,-1.4572373043065734,-0.11473901661330596,-0.2650250172851174,-0.1724826817638942,0.32841011701213307,0.34412721988323502,-1.1624505952610944,-1.553251977513231,-0.67123540084769606,0.60495728067294174,-0.55599099901213722,1.6895325297126267,1.7711411907313752,0.39933786124560899,2.1955393645128196,0.014056114699899527,-0.49219832266101687,-0.38638422856562121,-0.7022612193596669,0.87821142865095259,1.5044774663482559,0.20365048315909071,-2.6791556702650285,-0.31448491313639437,0.35414305740444618,-0.56598831878561251,-0.16745733490730214,0.85908528290341701,-0.49736723316896014,-1.1267881078463835,0.096724733276938507,1.0346809670795503,0.96026118084254553,1.1942037189585517,-0.44865762075900101,-1.5640609478684617,-2.0097011354956171,1.8847131016771459,0.12002340480857562,-1.1771556524097748,0.23325376973913578,-0.1765538449990863,1.0371142246235141,0.21993790345971617,-0.16856962754863283,-0.45318467658825218,-1.0000953367485741,-1.5836792637319317,0.45661059822798827,0.56138554402309127,0.23620979082865637,-0.69748152558125265,1.5310894187052195,-0.33416303014606075,0.78732468844592707,-0.73928224537806009,-0.9581614313240765,2.0465995925766851,1.2427896448726661,-0.69876234394799264,0.10212083125337891,1.2695806615205725,-0.89927336598023588,-0.38346270051701342,1.4240432937301415,-2.146361997065263,1.0294830947602083,-0.35542841288231053,1.2589815242333078,1.4444016684281671,0.87071792333988141,0.31079084100212417,-2.0500881626738869,0.4234145410075455,1.1331476329880634,-0.087595096643991774,-0.0084967005556149371,-0.90344537022078508,-0.29224199913835058,0.58977104500542121,1.0857013417012047,-0.67984569260791861,1.5929748926285363,-0.42056276242560647,-1.2659939011207457,0.77958027113570683,-1.0065566227847937,-1.3195324851990735,1.9435605408352987,1.4878635523392101,-0.074182396026564928,0.15569720224330741,-0.15887733048092068,1.0062530417513471,2.1802545176906976,-1.9695654084247365,-1.6886627596335875,0.20549381167922792,-1.3486247813305283,0.81612842072133418,-0.10691333966117834,0.73937704110448488,-0.38433789080806263,1.1545345983703852,-0.78436384154179772,0.92459851995761555,0.45733191625846542,-0.061905641617681674,-0.65097748067880723,-0.49107717693107522,0.37734759755187108,1.0196949215641433,1.8842520049662681,1.2866397573579376,-0.22954804498229245,-0.13481051324318843,-1.0179401029247401,-2.087570598439624,1.6639970602912879,1.1292871530187591,0.52615550646047571,-0.46052567244134007,0.24147625889840033,0.39474435867953855,0.58391037547611069,0.59514634391939525,0.54595400735593469,-1.0600564820394924,-0.40245917037931073,0.76774203666242358,0.4983995533701846,0.30979698717605364,0.53139508989499995,-0.76644532962583878,1.9099539751234917,-1.5106183704366949,2.5409490694758228,0.63661098365621216,0.24891482114769384,1.576827332368518,0.36611286269652721,0.9876177180686676,0.59969042877656298,-0.80442225518373522,0.5663032908526725,2.8771118373706557,-0.68279432714406396,-0.088646917610941317,-0.067520313389450734,-0.30783142120319668,1.2125684822240836,-1.2505149149942385,0.12564994409477545,0.40737498212769729,2.9169545434963791,1.2982327708427315,0.75374900971823822,-0.45620837438017592,-1.5541636856183785,1.2562103424695916,0.23700841311936688,-0.2725194003902055,-0.15342740187194323,-0.30721219869076477,-0.73805229857945132,1.2873241884788309,0.51285579218462685,1.6474533033962295,-0.70563607838048137,0.14152716592229783,-0.55401672862082063,0.60443989578543078,-0.044929379642031614,0.42564431881256509,1.7086594858219946,0.38652533087510493,-0.90807343368283233,0.03155959879440505,0.15884697105660789,0.32084125076105169,-0.28668309083104632,0.148404023329369,-0.67605497150419736,-0.86431078967041286,1.9156128749581267,1.1781662791559737,-0.61892149990524059,0.36480711532199811,0.97703620075404718,-2.2863630484496378,0.87906165838022099,1.4458405660490885,1.7384726881139863,1.651503238400617,1.8028975582611915,0.75320505341270216,-0.64983080775466207,-0.9517905748405171,-1.0724100049903185,1.4373230363758962,0.25459264739683296,0.4072531341195802,-0.92035833893711727,0.5445102720261813,-0.63363736634325751,0.68196624299376152,0.1463732046710165,0.59787764279412225,-1.3452917558700772,-0.67310428000250522,0.68269446395736821,-1.4561442607680555,1.4067710149112196,-0.22677443834741687,1.9057830198194334,-1.3177294325846387,-0.89667210094482874,-0.9998751798446831,0.43844233726889037,0.22863529456324577,-0.72965839908870167,-0.63461612310469007,-0.89272184574473967,-0.57159360036799289,-0.029592258843792345,1.1442733748062683,-1.0964551047250619,-1.0067050043112156,0.93205414495197314,0.6181883271569647,-0.67029541592252151,0.81113634268580248,-0.52534339056152879,-2.1224800003261883,-1.4004912309669595,-0.77695875548201376,0.78845327527895803,1.2295694102558461,0.018918608409754459,0.02001047973229066,-0.32457179240699557,0.025801103927252902,-1.4454013505625694,0.83777729785258814,1.6939060175009537,0.19189313293083321,1.3709632147472655,-1.0716584271771721,-0.24521413212845436,0.90778681676799444,-1.3764031991599026,-0.70316686471567524,-0.22192460514762799,0.63538723928507301,0.66248657930921839,-0.04112138372263676,-0.30675321155205609,0.28041435191942798,0.31086533008117928,1.4617145060480208,0.76800648830147511,-0.45616487101003539,-0.29291833813054408,-0.8555069538234622,-0.09955913833581119,-1.0827999269831032,-0.82602149831008664,-0.25182964602745911,1.5097865522122964,0.61308143370374113,0.1706243446757939,-0.46229792854123514,-0.34606033430293348,0.1813605689185071,0.6462424790322453,1.4571703528848492,0.84303632000222617,-0.93526568198762794,-0.4065239437453399,-0.13905369986851676,1.1034721789341704,-0.72137780059203893,-0.92104915402793197,0.060552538182995774,-1.5554641076281572,-0.48365204294628505,0.36559869729892974,-0.12641124873395859,1.3563934561186299,-0.35011958894385825,0.55213209199360014,-0.32530035210331432,0.11729846929507012,-1.3648644837664827,-0.18672636312174121,0.48857839897825772,1.0334398045809332,-1.1833949118501332,-0.64422392795505068,0.80052700688114142,0.029090807935945647,-1.1437257495222795,0.24196324555823689,-0.51727460482157184,0.63068820090684197,1.0553009527022215,-0.43412091272716047,-0.86803972861165368,-1.1224587178235768,1.5017807384233455,-1.9086536666787925,0.16346671669985113,0.71606683992188236,-2.9954246199502124,-0.19699000334518141,-0.57259729812379412,-0.37248413217971182,-0.90519670929982532,-0.01955816519400827,1.047960974985751,-1.5336872212500483,0.67045604458888819,0.05073199537783412,0.25568308512950394,-0.45733885177559952,1.3130728329438159,0.35651523669047297,0.2002159321322669,-0.574511273023397,-0.69555812218720958,-1.4291815680063487,-2.6032115794811546,0.35160475549635684,-0.75883324623135673,-0.15532667876401846,-0.67677342591746925,0.79717255100613793,0.53150890115533433,-0.56841105254813518,-0.47414526113758304,-0.030028018869863594,-0.709615048674338,1.3768468135631708,0.20079436834805267,-1.4356606467024779,1.2320149144542867,1.0720496511332256,1.4909036669230842,-1.0151321967996809,1.8764870688763646,0.074293226444055047,-0.58395640004366678,-0.44281172380347911,0.1412886612824725,-0.22735159019203602,-0.81862272672479963,-0.35803254870490153,2.0301044526112642,0.48221563156682767,-0.78691137711981862,1.3485547385321821,0.25517825567178198,1.3174669056191912,-0.30703633008693809,-0.66936680755114963,0.50728994652009707,0.40486734994360329,0.75287067445621547,0.90741492676653202,0.19935026539217712,0.96541196579767152,-0.4089223820829353,-0.42742631424544658,-1.3685007135520328,0.32068480599883459,-0.5858151872561842,0.98310823690790172,1.0559618797801427,1.0134772504227503,-0.31757361128475448,1.0533309675544997,-1.4613197285496093,0.6926296545842473,0.5770732725871891,1.0265926358172075,-0.52279687873345015,-1.2503998988463747,0.27901593187975399,-0.28937777537746701,-0.62695147659285066,1.4228400070000462,-0.017855087224699657,0.83169451352883661,1.1548481710184701,-0.56239717271674117,0.9623694552126365,0.52168537926432701,-1.0792960202805448,1.2958678041095542,0.42641489384690606,0.0080750064798455218,0.22264996127274608,0.46295043924262691,-1.0478643596951718,-1.0299126689220408,1.7189576951081085,1.0805768828167961,1.2193709452888952,-1.243217867966693,-0.51302951203555502,-0.46468683472295308,-0.5007228645133377,-0.48516946767210711,0.76570863323083227,0.16937809352959937
0.19801210097782815,1.6253513083714142,-0.016952441807545678,1.1535357570321707,-0.99022176584198274,-1.2825422151292523,-1.3829974342441673,0.21697864872253075,0.96949849528163534,1.0540779804953537,1.3893383850039662,2.0467229258452151,0.21754553524053927,0.69420031139209248,-0.19155533365158978,-0.49094311993601231,0.16167083136494553,-0.65377805181771043,-0.47071538148367453,1.6943252319043256,-0.18518040115761286,-0.46203978392903716,-2.4688774078863074,-1.2539069551310897,-0.33610672974491829,-0.92262851858224704,0.70321308451472453,0.91857215062332176,-0.070536057822998294,-0.24385472783782444,-1.5978421617303851,0.54095323344470447,-0.29399023058980583,-1.0258922401379735,0.70255411461462802,-1.8853815905110689,1.2589698310837341,0.16679982283000597,-0.2358437739261158,1.1782423542112879,-2.1728300094282189,0.84814852182115619,1.4843739223366912,1.1891881560273545,1.4928286494130878,-0.75921921855097119,1.0176904039970898,2.0197050514425978,0.9548818226813538,-0.40495769358440586,0.39983604408089191,-0.43240152252432218,1.1969729898610997,-0.69020468832386417,0.1157956189983466,-1.1768706163472817,-0.3084706597983104,-0.34934028340293305,0.3248086007569756,-0.46796866788715474,0.74799348931782672,0.11141471717187643,-0.77442958352513314,-1.2236091479335314,-0.20221375851936438,-0.87704610802487781,-0.15757227478948205,1.123334594281997,-1.0331852732137157,-0.49772716161963459,-1.179017976073115,-0.83880743313830219,1.0222504381834541,-0.0090408995515473805,-1.5813958585438181,-0.29811270834538134,-1.0357728693859796,0.29171889873239981,-1.0369996178987706,1.7400522392784141,0.10392363271284838,0.96345593068837876,-0.76716551018331558,0.017305713538276177,-0.32108359038069528,0.22148439222712901,1.0754196952698829,0.42814411087928972,0.25733621268077217,-1.1123100439610936,-0.65278209365526063,-0.29133650812269279,-1.3923938972482486,-1.0125350893696936,0.55196388695938747,1.1803675830748432,-1.561399660225099,2.0504479625755265,-0.041874224508225859,-0.23464885308645667,-0.1347097297523332,1.7553227254403951,0.098875754489963427,0.26359527798828175,0.00024199539296915879,2.3981108725089522,-0.25313963143168433,0.38494477272077648,0.96361241756560567,-0.10670678432280771,0.59927758944121523,-1.1591130082109755,-2.2269402598887953,0.19086420803724671,1.1136008138198241,-0.052160306307370764,-1.1505924492825763,-0.073812420772271292,-0.6284750769038604,1.0373069832478585,-0.32335672259916026,1.0521565539631199,0.30634219646908251,-0.12714916813618127,-1.7546627663821619,-0.1660461969758181,-0.27719094810450173,-0.070561730915676538,0.86449947949265049,-2.412202478160308,0.93914929448291673,0.15869960454168303,1.1850256947766404,-0.081865637214933229,1.1769579555646335,0.40155693931933056,-0.16425762838439845,0.70156685959615017,1.0073069846015401,1.0379321167270827,0.4382863805197334,1.0338237109383304,0.004531712089394963,-1.2957091889902135,0.44612410740242253,0.97762384745075259,0.29826425449699001,-1.4083272777058657,-0.49047212106568838,-1.3021173109496555,0.96299946014064874,-1.3830415954970157,1.5635964690373827,1.1293663433422563,1.0808576458081076,-0.66869300779573271,0.56309728851238816,-0.70585920515294664,-2.1897141813440077,0.059095793832334119,-1.0265688772296648,2.3478052205455007,-1.8984872740182128,0.60412484326354876,-0.24131046836621728,0.44652278275739898,-3.4462882354915516,-0.36740233382262427,0.98170945343596761,1.7940077968572157,0.015296112401641745,-0.85972732943280861,0.40612462905937219,0.57689011118132727,0.59839028851927545,-0.3304802261162651,0.81710398548906027,0.28823583973311856,0.42538210619184685,-1.097171773316757,0.30082014776093785,-1.6197553870732735,-0.044349897334189002,2.2349722038134638,-0.46682648098429752,0.90688269471349137,-1.2577048377083431,-1.7019719905868749,-1.7265074969086562,-0.86631501814718004,0.66173833966921447,1.5380719109210179,0.55963215310490466,0.15816095720908213,0.40606258881984719,1.8200817928183584,1.0955619372184846,-1.7614412423392161,-0.59397997742614084,-1.4969839041308179,0.69341908894666449,2.0428691398505059,-0.42016404707886784,-1.0281642180781985,-0.66915980762912053,0.18766418528923437,-0.097841192484569919,-1.3209238389156253,0.33662170613314923,-1.1785843767570798,1.3185886234928863,0.29301416003145103,-0.22181675854129976,1.7227294010890535,0.59960016743551492,-1.2791206233483172,-0.080049319770572572,0.5297241615837508,0.79617530713108442,-0.068380466545507917,-1.5693556720594479,-0.14739718855476239,0.070558256241272488,1.1347267590611732,-0.60870990360498178,0.78960795411916418,-1.3385224967673184,-0.070682902946219428,-1.3776250197379083,0.38222204955727052,-2.7367394215535059,-1.3469197934243609,1.1724765008492057,0.36330705767950361,0.26865864065781131,1.7826561670168533,-0.19464253032439854,1.7039817923419167,0.41404282753854421,0.06976004485133909,-0.076957135543658975,-0.48928657890490224,1.116139386284323,1.2709733926225102,-0.43159125963511663,0.0031240890517186689,0.14638642529095555,0.68851099829770845,0.029311981816439941,0.67622425933572472,0.26593073460366667,1.1283327275129664,-1.4568899253127847,0.4750164449072532,0.33759492177348821,-0.074805948642203898,-0.17667948061579394,1.84806719879467,-1.3015888832461919,0.065807367496072841,0.12744314404362456,-0.74188249358384795,0.65096853900647744,-1.9608759679560286,-1.290496756885918,0.68620340919283995,1.6089526927066549,-0.62384496786207555,-0.80358876579117355,0.50473714923086765,-2.6585763297981257,0.92329094685776181,-0.42830948119623202,0.35823104689456803,-0.43889568221098468,0.36185082029048304,-0.83487110533176301,-0.8462096034685026,0.75274773968087583,-0.99851006664884334,-0.23269136060392753,0.14798895314712276,-0.94583599738123636,-1.6160830294717188,-0.63271396452715201,-0.68138145999793309,-0.42035244355999435,0.54552774351312872,0.68349537706143459,-1.2787867034482179,0.43865119533520952,-1.3178887379990727,0.3662483174950541,-0.15473730324697027,1.2435775053577158,-0.022107084304024055,2.1565444791574575,0.85780301547317561,2.2854658163645221,1.3141360520483523,0.088882823449019058,1.4926973702811936,0.019474254511177451,0.74806493584424272,0.76082790850128834,0.87792014571430788,-0.53237162540271876,0.95070647120460217,-0.61113376601373304,-1.6756499536483331,0.23468762311259003,-0.28605527268889719,-1.0028564853730904,-0.86463087818930717,2.7617271724572423,2.5785144684495669,1.1785935925624389,1.3588250737635998,-0.51179374941902556,0.30940555137788739,0.96242326282896595,-0.50120954359833025,0.16994540277287501,-1.0447390554643221,-1.5543379415448799,-0.12427671528209761,-1.6675949119575717,1.7937325011775143,0.46303293050541638,0.42778199592075394,-0.97926397775807184,2.1538062460177425,0.23145066850266213,-0.99552282827056959,1.3255195151253873,-0.42655930147109972,0.19930786859736033,1.2258658528186506,-2.5120655374526555,0.59260034635961112,-0.64838106461095102,-1.1590813078425,1.3566123704760669,0.023649805485023712,0.57786380112027491,0.86720811193972291,-1.018230356346312,0.75049758966063695,-0.014210823002991327,-0.2395323084305804,1.0351780328748004,-0.71607903648649929,0.84598648156498057,-1.2962811200563624,-1.0344147108460018,-0.57108522666725858,-0.62376200052913322,-0.29750370439626816,1.705715020474454,-0.35360652042419305,-1.3582326098218125,-0.51734137140018988,0.75169348684769888,0.76816584920921116,-1.264617660203629,-1.0254277381595986,0.98270595491420587,-0.75479778500200634,-0.4457633093879626,1.5707340147912165,0.17042159811348834,0.38054275378128827,0.65420924905024902,-0.20396541251185546,-0.2286346300864098,0.73606525065802464,0.65669841839762577,-0.37578891028655453,0.38905330723900733,0.38257466282310154,-2.860225681242937,0.69547921661482737,0.20178479780273847,0.63717721116796699,-0.66419076784683229,0.71517597176055681,-0.98858645377212628,0.55370801067311659,0.49306161612631233,-0.83675326184750964,0.062179588391072967,-1.7797101584785138,-0.81208210145094739,0.0092542462855966026,1.6755751991413517,1.1433301856564919,0.444752641677506,0.15491643489239182,1.4160476062165253,-0.12988248920941517,-1.9081791813307192,-0.65262392467607366,1.8026224497329846,-0.04368627110048965,0.15062725011446906,-0.07914626237395754,-0.27066555618427296,-1.1613339562619747,-1.1903526304772016,1.1296108944965357,1.4717647162048813,0.17769759021078782,-0.69538301996303054,0.48801991875884443,-0.10777369342983066,0.49643380361568801,-1.1122971538415747,-0.3256620160210576,-1.1830837638932059,0.78262093996010729,-3.5055655117793649,0.084633764101786912,0.0998362868678178,-0.59566346836657424,-0.92551006770208433,0.3343443714624959,-2.6538090213466692,-1.309146209756413,-1.0681480859244044,-1.2455855873587072,-1.2119731305658532,0.7369530839451468,-0.96339064640204608,-0.81948377831025976,1.8987621155482268,0.49813894455812924,0.85923666118768782,-1.038240846086794,1.6182808190469311,0.64428739365966636,-0.55053210488518967,1.6387066476224192,0.39357402277374287,-0.47460246149434276,-1.2643484085386458,-1.8508777768764,1.4080434047496224,-0.91784630656950972,0.26723266862898104,-0.67452338541864187,0.27052631722167636,0.61449654397840281,0.59265541989392112,0.079751979621874719,0.10836180252636766,0.12188775760309169,-0.17227170851703252,1.0796023020492678,-1.9393302566292749,3.3055289588292185,-1.9405651503703349,-2.0505409498972509,1.2202156969862912,-0.37370601830006545,0.8021310744824578,2.2041976333712161,0.1643762271130299,0.72495117586659819,1.2884977962919937,1.7955901485066055,-0.2934788323326446,-0.99392574296475589,0.11188546624856492,1.2046093892655241,-0.65717411153981264,-0.53421866683482533,-0.1438385756518151,-1.3270163198080289,-0.10093319899525058,2.765199653832791,0.47447148035031461,-0.29897083747972319,0.09718015639036677,0.31293076597492042,0.20036775059495507,1.4425411580041501,-0.26257098816896413,0.64363806061200057,-0.032306627186903518,-0.6008762442013077,-1.3913307060648612,0.14988822580895592,-0.14499904834967445,2.0538322307300056,0.93783838635250083,2.6409718242670226,-1.3409415452049136,0.015019422569640789,-0.14473044004113686,0.81323163506599938
2.0951740612336986,0.33320469433757527,-0.31070552529604173,-0.30636662789400759,1.1605367321904347,0.41231506960738568,0.56853083318975284,0.31622181959451917,-1.2954758256717018,-0.37198886273157117,-0.18876014287214316,-0.84346687462607961,-1.1258801647170771,-3.3105925239674532,-1.6398000142815465,0.64048483846035331,0.57386986674441309,0.61089708531574061,0.38567362340133021,0.89377607268294101,0.8000418294768602,-0.2397509847556637,1.7760661429100939,0.46479426230742416,0.77436137977669006,0.03604722969246929,1.5120359064002533,-0.77168005163820064,-0.13763160878034369,-0.77495518801552332,-0.61307511934237946,-2.4462220956060103,0.48969437237389846,-1.2182757304637166,-1.1475021339344453,-0.63562549363236875,0.62562375202067566,1.1809618242809841,0.39331188518112842,0.64056758943407754,-1.0422807980596964,0.6365808948844538,-1.0902075980745107,0.020896705044866602,-1.7534255217225547,0.3306382566456274,0.045276726366945678,-1.315048363699505,0.20786575085854941,-1.5788141559223101,0.49608586074491196,-0.96701383969199239,-0.55303147750562409,-0.38995936088926747,-1.9588835191263745,-0.55133913939885615,-0.73022009771495677,-0.12777788036995147,0.18168123621028856,1.9762445058587323,0.10611909636186402,1.279555673100677,-0.10598522957093855,-0.18163643635075097,0.78078646484671566,-0.0039549534894007549,0.50474725900030792,-0.56400610431748177,-1.3661820137011744,1.1077900321951075,-0.39993070797855218,0.14763376448461754,-1.3767470651041946,0.56402342025224361,1.4133471569262903,1.1296218509884475,0.56183693385223266,1.6700142197250623,-0.84470372253820747,0.65250605266370787,1.0266443234879554,-1.4086223648000213,-1.7103445674255353,-0.66750374753344699,-0.18139474304219572,1.563524681527706,0.11727057048796241,0.93796427440199837,0.68982781544451521,-1.0842357156062918,-0.47068164276292096,2.0948227330135647,0.1164520613314548,-0.053620309771306177,-0.12796066728844976,-1.3836845593223974,1.5177101782051603,-0.17792082268760373,-1.5922775641556104,-0.74565560533220632,-1.13817489502605,0.065775447039604681,-0.36889000471689909,-0.96973409694276691,-0.23189167100527253,0.6082284007101888,0.012201508183687234,-0.88877500337625603,1.7801320408147328,0.2507199131804142,0.59665102263380176,-0.89526698448996522,1.1229530279347,-1.0544147320688761,1.7347361232030016,0.16365174791312509,0.18716298477043158,-0.85194566286764373,0.83583947597833497,-0.028365703343519646,-0.81225339006028707,0.83403948216724055,-0.076386097536929279,0.54756379908808328,-0.050901590074630694,-1.8289796728100514,-0.78117992084550203,0.65128735448632225,-1.860440958105509,1.9009708159292646,-0.55928566708868366,-0.77124196360630415,0.075431344857115779,-0.3698162022318367,-1.1065407378089804,0.46113037291153769,-0.067915780994132882,-0.23064661657114452,0.31851629626871208,0.23709344135969318,-0.012443216484845407,0.76289251373281486,-0.7699052578373542,-0.37650443963659969,0.56746111695560431,-0.22096849196987167,0.45100493495460237,0.19366830194205692,-0.23863521054051973,-0.17824256906722757,-0.67832786707649939,0.19225221770256321,-1.2984076447995105,-0.75257587374716262,-0.7032639930008312,0.61799546811887129,0.48812030318490623,-0.015770672317448629,-0.89835736583976988,-1.4390333728677727,0.62896848938052219,0.12362288473661119,0.92635554941844556,2.4047881044431225,-0.7316633452362663,-1.0215690097179586,-1.4731366308342497,0.71808426564245231,-0.06034411040580967,-1.1503129504793319,-1.2108867481056531,0.48047281071590581,0.40943700892151225,2.2649462471832629,-0.51697913377967619,0.92446399081387354,-1.1874895427887646,-1.2471680052553527,1.233770477284531,1.3520018057281853,-0.63684399277284598,-0.55406527433733077,-0.79404123629598522,-0.44128233270842787,1.6122440984061732,-0.19634691364789145,0.18352306144403618,0.36671176556510399,1.3762310760649124,1.2755956680986784,0.58866228653972874,-0.5069020055178014,0.23049583192866427,1.0077035027805661,1.0696251690251515,0.23335856780702213,0.7558457303870556,0.27764133996528262,0.67526619419028378,-0.95736952928934416,0.66075459342449239,0.093739889924833134,2.1293520716711916,-1.4115972515643906,-0.41028965555733882,-0.64738964234916963,-0.2501494810289831,2.3183675891782745,0.89697144382052851,0.032811182202551352,0.097004469705101473,1.5820978218206074,-1.864079303775855,-0.077109661874272498,0.049936348986769914,0.062133604961826586,-0.98660894613107508,0.22584634131231557,-1.93472082301766,-0.33847869233163846,-1.8401641070921251,0.59036631282764207,0.45822958694117499,0.72444099839486498,-1.4864243482150983,0.90072820995137659,2.0463835547774432,-1.0788634867325446,1.7080455950869484,-1.0865776639222144,-0.8934364505085155,-2.2784591920282971,-1.3602259275811646,0.25263014203062767,0.069826624306956936,-0.17737104683498614,-1.0848823009774857,-0.12923381496422573,0.072309710769551602,0.12174095107354661,-0.38501643744919917,0.55653404009707452,-1.0586372413894258,-1.0523452061048277,0.15617015051485975,0.60248396584262354,-0.60261514251995918,1.0933458474238413,-0.33803890989170476,0.93633123004697638,-0.17384104403258901,0.0048596950131060473,1.3960436132059488,2.4576336242890422,-0.25562903742527338,0.27217987518603903,-0.95212897732857993,-0.5429416236214567,-0.48827041868200494,-0.70345650671536364,-1.0537491233518723,0.1893829085461356,-0.017832156975325364,0.39481417737915953,0.18295569094685057,-0.059812880284026093,0.61447370405126644,0.28483509704157856,-0.20726721335803364,-1.5202637307154219,2.1218712648932914,-0.16428235649672288,-0.061037429248752356,0.17105079736928819,-0.20443683587301401,0.47947799816274828,1.1197868442896262,-0.24695786974180969,0.2354999912939762,-0.056778758672020695,0.5416892400461627,1.6654478467337153,0.81200497077731826,-0.044714513678749797,1.2155509071787045,0.050817960687641633,0.96495769355035999,-0.16722865771694936,-0.1916631105465969,1.4972029092954917,-0.60193284163360539,0.93698284640855412,-1.2027869162874554,0.84732943047887199,-0.3196589743570587,0.66003778700081317,-1.4069621615949017,0.32670069902608306,-0.67259811445400552,-1.1402969598142267,-0.042707044761602114,1.1680031991380693,-0.25478689902107537,-1.4760010798243084,-0.17465353444002632,0.77233966570002044,0.55800457672877002,-1.0221436968360658,-0.69665793786986652,-1.7846065266121318,-1.7658132998688549,-0.7658729184348172,-1.7287152520509201,-1.5384582751489464,0.71243113743315345,0.20702009169172353,-0.12267436447222518,0.60240134428257852,-0.6155461848771776,-2.1425271206917254,-0.18781791382009888,-0.84175638452962942,-0.74905594782715945,1.3957905599551665,0.7534239060066531,0.063616891656283703,-0.56646188337760972,-0.34220843897018738,0.53258274670335759,0.94498710048565993,1.444257832655516,0.45370270937019963,1.3144728551814917,-1.4679979163244283,-0.69808641997007981,-0.095655582645783083,-0.37396651647783397,0.75651860296304152,0.98066894105719049,-0.86138298961823001,-0.065661280590864138,-1.6945199701373699,-0.91695393009643955,1.0061962244882032,0.46603951689174417,0.41445666235195128,1.0837374630764083,0.5415423421126172,0.76135806372676673,-2.519685792149716,-0.68211005747458464,-0.067573941416502623,0.59620169149650248,0.85515236812505091,-0.027585329454397782,0.12503505641229329,1.5614225628286242,-0.22974775330050712,0.98459827782192499,0.33697951349052502,-1.1225190457335463,0.54649937616885991,0.81495418596622105,-0.58843208800019309,1.6306365591284613,0.26430915631804464,-0.62016746848332593,-0.76370406297539906,-1.2394307514014351,-0.70233983592615779,0.55906434226153401,-0.17917392200795632,-1.1511154945999766,0.7596234766797848,0.073089816636240673,-0.96429335898955193,-1.110653793932852,1.5350609261789632,0.67608461089342009,-1.4631208643260898,0.44751472017852323,-0.096537411301351461,-0.19077328470383279,-2.0648060647945252,0.92053680851737141,-2.9094452250304772,-1.0158794943493727,-0.86535692950631726,1.4751273971637699,0.38632151364127293,-1.1996374257316813,-0.81372951932794813,1.5654416309267596,-0.10080993737663035,-0.20983156295941252,-0.69711078464851362,-0.17044073852459049,1.5035074352737796,0.97979157292229202,0.50476063548551997,-0.57707776360436891,-0.16844289031300419,2.4610696053100303,0.62140697164068504,1.0706845365709736,-0.079964740647013033,0.25226077131032409,0.19662437910016209,-0.53671777186939618,0.87526262012757539,0.29349749530262442,-0.45281405689819082,-0.41719364612293253,1.5058231371693196,1.6991786770905422,1.1475003308436558,0.42152116185010102,-1.3287404196086308,-1.1843177546227956,1.1447167826440314,1.079928328038869,0.060899482625426722,0.081088326201201599,-1.2745759396224381,2.8741806915275947,0.15437147348845637,-1.2651895063439773,-1.4167018317839399,0.61379265095156488,-0.56863275150619563,-0.80045213234049906,-0.66710310835944087,-0.10811301092404173,-1.4472702566396745,-0.47708173416319177,2.3962417455813272,-0.37848458980304289,0.2653156039527117,-0.092725638264332694,-0.53866522846533305,0.13651118321844943,0.55008417433315204,0.60379353175212391,1.4789720377345457,0.057368647285059873,1.2079088611405278,0.39126666846975067,-0.10467575792907691,-1.0708517399703714,1.3488427475000486,-0.23670039065626727,0.23691283889613662,-0.93581216559276292,-0.66742346580745593,0.75199894062530426,-0.014858485433875001,1.6385229672054515,0.28341504282425206,-0.96019773984127466,0.55533031365059438,-0.18218513567336839,-0.76112238685445643,-0.70447166618802826,0.81565333929413386,-0.12157052233274099,0.68472655922960901,0.2089448331790684,-0.92970735927935166,0.79467919737923287,-0.37586640167163099,1.2816148340529425,-1.5800043619297364,1.3026525785275782,-0.77845806312886268,-0.58295139687477282,0.43916679203164471,-0.11071609084336567,-2.0405960017562497,1.037718581251992,-0.94870388315572718,-0.73328412469620285,-0.085722912982323096,-0.44504551933093661,-0.36821939160152556,-0.6554543063060686,-1.5680389211924357,-0.60195572210460646,-1.1089987366114658,-0.56236994833813492,-1.1355055287976556,-1.2463371077798573,-1.8812037194398801,0.77493264479476609,-1.3985607887226659,0.80024726094367693,-0.23349713235957126,0.84714452350521219,-0.51011612019608354,-0.50450310733117287,0.25341662672318743
