0.33152438860683031,-0.13503522500656542,-0.57812408716435504,2.0322871818713351,-1.0551603919807304,-0.26732950384561605,-0.74978182763327361,2.3369514626223915,-0.058519680543941167,0.12751948584499573,0.75522912681244947,0.33013024248838196,-1.092989062107204,0.7184993537454587,-0.13138710823401487,-1.8704520398910998,3.1692789194235478,0.2307127217657218,0.60055834022535703,0.69032620849241588,-0.67385320711989305,0.074089489369701764,-2.2722304298965965,-1.8154290590064339,-0.01073641746084724,-0.085835380109940379,-1.6722404690142481,0.77030375795579087,0.15061583019135341,-0.034391781151028866,0.72954978908822177,-0.21062805261550493,-0.44515612328400533,-0.44697454848059709,0.30410720687204784,-0.51673775207109873,0.013768725978273883,-0.072590980547588002,-1.8256341793538875,0.42403625578056131,0.90297317305902858,-0.81289462236596932,-0.57487647215621462,-0.45708781454503572,0.10899084198178138,-0.59590171833656136,-0.1410537205616173,-0.80436548942148167,-0.44103888632900407,-0.40055600832039517,0.13022808694139837,1.7371025573854801,0.17248598990355535,-0.53189176112741476,-0.03592075290711514,-1.2180985833541924,0.38173590696736903,1.2618619098015966,-0.033064127452570098,-0.36041413356252472,1.9962398965779955,-0.7426588498498935,-1.3220661438590786,-1.3197052229202024,-0.56886582779063244,0.57398858313447221,0.47053704333807084,-1.2095638656921508,0.53470121010112404,1.1683100113150562,0.92072909445425355,0.013300980979622401,0.35302939971629077,-0.47929527955695544,0.51780934962055625,-0.88821218685262093,-0.041312409124779396,-0.13550303684180437,2.3861830291910908,0.62601696568884446,0.23738612288721916,-0.36068247400926745,0.7351723856896375,0.14719026746097236,0.11242291587326633,-1.8679909875731462,-0.24360905993417295,0.014625677064220853,1.54312035680926,0.26834280712568437,0.77122303060343944,0.89380664705517199,0.5381951374628916,-0.11107554994663435,0.66419468090585509,-0.70285439149045414,0.044712527110551396,1.6922254148071616,-2.0338480825250351,-0.51021608679797326,0.46451119080302811,-0.13622718756547633,-0.45625764086928289,-1.4984885320059032,0.32508992148071947,-0.11214679114141665,-1.1016995599205268,-0.64763881153327918,0.93762870800604792,-1.2570453914110449,0.091163348986823947,0.67790976478461673,-0.23140789690185218,-0.10558831911978162,-0.85577417421300739,0.78501305328834936,0.40932390617869441,-0.79815682033138258,-0.3333045857027534,-0.82843816073390963,-0.22511536054720521,-0.10969248429796231,-0.22481363246958386,-0.58980541386134855,-0.62291803265184142,-1.1064211436976896,-0.11983153555295729,2.3844698660101256,0.31875824804087688,2.1029861507532019,0.32706161047639326,1.3426706098932235,-0.080039542109871159,0.040608514305778123,0.98706884565365505,-0.050545395885104809,0.9237643561793123,-0.46287755421975074,-0.92683371301709061,-0.21222775660812646,-1.8572493931825322,-2.8816811781099712,-1.6965164840590141,0.042781111943704389,-1.0036428522336536,-0.39537034578325664,1.5405149234899502,-1.6384206805863883,0.49260903315933507,-0.05557110360612641,-1.5008474058859316,-0.88445118896325736,-0.28224891171003746,-0.14603913368289087,-0.94212861537386472,0.26966546236971278,-0.37043117392703889,-1.6057137100363699,-1.1325317282017004,0.33818754170365689,-0.55133719243984702,-0.32736030789073928,-0.84596674033632546,1.2372989040151428,-0.1452963278601751,-1.4092764628075967,-1.8801715681460196,-0.070372534522446517,-0.14417227718810438,0.80431051596428349,0.59576324019158189,0.92627244559004052,1.3296226275210605,-0.42020767256742375,-0.090147995612934587,2.3197001176124945,-0.63904790668972034,0.91733564270307189,-0.71386043282463807,-2.9359178369861425,0.68825139572481486,-2.5399942204012742,-0.56581737066648496,-1.0625120804199262,-1.5649969074190324,-0.98516972276526482,0.38052196817257289,-0.4010437460631982,-1.3996818392845078,1.9140645736328212,-2.332376494617554,-1.3882896985452855,0.70827664960435333,0.86308582620755969,0.43732693243617798,-1.0945381070599509,-0.70391338132275294,1.426506664543379,0.77720943079283222,1.1970672894818799,-1.7727118204926562,0.3436138022583593,1.4513107811700048,0.91456564086083858,1.5481623086963949,2.0260667927983587,-1.5652389545755332,-0.14272168769479998,-0.55177003969729421,0.96245883098524265,0.30598292535659272,-1.2324123428583578,-0.08837197624326254,-0.53305116685718512,0.98572627208678432,-0.87260744213972297,-0.15992951102709674,0.48282359856959028,0.47958225348091749,-0.13580088110141841,0.32130723578171405,0.1462320517059485,0.16405835016988829,-0.40888989122257419,0.24888781181879469,0.27411582707634385,0.3984193049090351,-0.96638206638106239,0.43184443023211827,0.76468427550969686,0.56466221609768708,0.40817566069458899,0.018064374100580469,0.98374161694955531,-1.8608170840394422,0.28370739220489261,0.079864334530051942,-0.077754471323545557,-0.43518124781148854,-0.21486167867972963,0.57898545978658689,-0.053565257478231341,2.2539095045400561,0.31338244166762713,2.8161254580407387,-1.2709633483977085,-0.19993924830186827,2.0226155857650352,2.3108434859722995,1.1266853514451776,0.97996307129859006,1.7451614185942341,0.23064230250715406,1.6229702745758383,-0.9556599935865997,-0.35257718395723686,-0.95986344259277867,-0.55432839796452349,0.62966393642598051,0.56976052664348176,-0.66062736417989654,0.42821366093328239,-0.37058794549309892,-1.3059048438378831,0.58436976382015948,1.1486156561208793,-1.0616542658087031,-0.50093963713688372,-1.755818088771623,0.81683942903868267,-0.72167775480857665,1.602559423702266,-0.5862205926636509,1.2484322323157404,-0.82720959737729927,1.3264614900530767,0.23881564922964699,-0.66407943145131909,-0.52142690423339022,0.34424980235731112,0.19078334545431289,-0.68419843630160537,0.84385444530212461,-0.84677496609294911,-1.6538142243530052,-0.25497419318156073,0.029477836234686833,0.54077539426625054,0.21147839757566309,1.1579804437607921,-0.99834897785847176,0.040637820414526821,0.13177453926442123,-0.81183297009039224,1.7537124948744944,0.66614336407505914,0.58244843462342277,1.6049620301571574,0.92598672200907894,0.38281355605005468,0.83323492083056183,-1.3355639952863663,-0.27212925005242578,0.86262320947171578,-0.18562807602061832,-0.74073021139788253,-0.52655385470820504,1.3665236591659036,0.23825307322081887,0.30012027962549087,-1.0650707571905773,0.43058478952094731,-0.88673060828962846,-1.0276905891832713,-0.63848150412956373,1.166862686462341,-1.0390692069034961,-0.45191327309136747,-0.079340020513514187,-0.11621287870997232,-0.14312000285339471,-0.24147066234513986,1.9081207702273644,0.82264547681577704,-1.2160658336371195,-0.70726241908362275,2.0910755415560938,0.95567857005521284,0.2929524495198953,0.73262195910981953,0.16645285947090885,-0.0013318843874494566,1.0636892683344876,-1.5100155796786874,2.0576469842516221,1.0143098989425425,-0.22739545598464303,-0.24348549369932024,1.2449061032786417,-0.58113604545642317,0.037744646594178616,-0.55075783375697318,-0.1500731914410941,-0.72291699689862576,-1.1885833083086872,1.3841694544277383,-0.30444091240973203,0.27665637116971326,0.44382245778971491,-1.3163505940637032,-1.7022722398841503,1.2479404421150733,-1.4766891490307654,-1.5760206440994371,2.2020858716582823,0.72956323432323555,-0.79906313620263614,1.7022017833918008,-0.68634309467484744,-0.16136279118531674,1.562590592384812,1.082201227046917,-1.511750288789687,-1.0397145161936943,-0.87647564030693403,2.0101756463393641,-0.48769560338382029,-0.80861915932258821,2.4472772856374787,0.007551778015483534,0.084206876234829961,0.88118313771312529,1.651755580902506,-0.29430351768664892,0.019846256261508582,-0.061535103193825894,-0.31999212481048678,-0.52302938538834198,1.1742324087381555,-1.3919552361533776,0.27876018028321986,-0.11704446617810921,0.83978736305964163,1.3903837241829942,1.0261584689906884,-0.95288735273021696,0.34697205433342743,-0.36606372546098404,-1.9179577596269184,-1.1787423952176208,-1.3419448684519744,0.18700849768440603,0.043872880946408253,1.5792872749210967,-1.0619851764947694,0.23229509164481335,-0.5052435605474882,-0.88026080123620143,-1.7738710969055371,0.1776988072799755,1.5673430730338396,1.0812395353471389,-0.68843896339840827,-0.324800404920988,-0.38202055750316266,0.24581503767886045,1.0697519861948006,2.8201926530412669,0.30770945534113431,-0.92097748003175339,0.29619606953258909,0.54433856602030362,-1.4096583696167089,-0.29318950151043927,0.23136599794652643,0.28522605448522875,-0.46286117112906305,0.75435981515005557,0.76143757056706962,-0.2541516770303876,-1.2450950883382106,-0.16167096907381392,-0.85928384257271884,0.23908233629985184,-0.18031485792536017,-0.50967203772625103,0.9553201271509314,-0.503425818382088,0.10067570426698808,1.891774058026493,-0.022582705734126102,0.111740839182932,0.044392666468598102,2.5555912490904245,-1.1884408154834529,0.16074259027037111,0.68567857675741839,-0.28107089329338081,-1.6284624640833567,-1.5190773302802139,0.27374350611821491,0.31210028042817223,-0.69002385351018969,-0.66617805408851982,1.5879989719787047,-1.1973233037032991,0.09693842282469374,0.50612389778228584,0.23903147100860678,0.92822573682838538,-1.0665492323590091,0.89563668726706935,1.1552683677332249,-1.0543922940877561,-3.2968548002229192,-1.3055872935939445,-1.0272582928308402,-1.7009316939526942,-0.37661330243840291,-0.95226087788708291,-0.18479584663714665,-1.1981280899289823,-0.67372642189873311,0.24357422768488687,-0.30456741414124855,2.4772072317898668,-1.736944424941038,-0.74976441183659881,0.274667895533033,0.808887521046186,-0.71153674181122228,-0.93844731075097054,0.059285593066166355,0.62607684184011758,-0.76362604467731454,0.44044605584709895,0.088815224298189652,2.3171484283669987,0.51111373202902344,-0.52464029491035435,0.59407386579267618,2.2871659099753239,0.19655403510093103,-0.14681157672137568,1.8525225585573086,-0.47768822882521539,-0.99065589212790062,-1.1370293531145144,0.84670196984659452,-0.26105262049146305,-1.1654755595216844,-1.8751217575316472,-0.36752535636074185,0.85168613365283363,0.42551092819887398,-0.93552270989444397,-1.5449502433528612,0.039594646145255256,0.14601481976956732,-1.0308206542486467,0.49837252024685547,0.75616934634837529,-2.1947535888284513,-0.31945958710385747,0.67921748535123216,-0.87123402573542008,0.53923740655869601,-1.0358007134272635,-0.88245414025396096,0.41965216192177096,-1.3339032695218553,1.8287893710521299,-1.159268015289856,0.8950283958131583,0.127656483501385,-1.1518017140207055,-0.55388770874815219,0.88747283760823803,0.085685648111251789,-0.6724868154945487,0.61994552653075308,0.75438077620435795,-0.012855884409133196,1.0440042861372514,-0.93683734479220149,-0.2670322426070717,-2.1949609873073856,0.55828183978603463,-1.2031854304601857,-0.01048013199733485,0.1110329921551733,-0.9492920812461173,-0.66114715842130678,2.2287472908749151,0.28020576169524442,0.26835513075613876,1.7734733147928423,-0.68943023606146847,0.46243050755579884,-1.2628106350727775,-0.33993572519071025,0.37905331097621864,0.30706768791764311,-1.4073905485324556,0.39563214733660335,0.21808522114122633,-0.75387588324694255,1.5572685667186681,-1.2562310579180831,1.1400945251678056,-0.44516172235266921,-0.12509277071578445,-0.42817666814054822,-0.54832707852231821,-0.83768560644252599,-0.27432197662180846,-0.73677236102460864,0.42926602332103486,0.5853393615772734,1.0047957621329089,2.065833455021254,1.722553005160719,-1.1939402184590853,0.30631584936399059,0.64470855095621671,0.95736718543895205,-0.48957922632375778,0.022395147745220806,-0.42365232225215332,0.12063180919868176,1.0324782119095868,-0.28260442952069076,0.48803425284149382,-0.16283602109662287,-0.2691500940345713,-0.50398694810637301,0.076138792207439104,1.6650963108693888,0.29667875814584466,1.1579733581057983,-1.0836528598273509,-0.83156088854199661,-0.060735552238770536,1.1564047280364949,-0.48714819757982175,-0.50337978421659557,1.8471146057133754,-0.82957507738615288,-0.038694842645595889,-0.53052035675844322,1.6662874225380513,1.5430852993837867,-0.79707592221111323,1.1197424913696665,-0.43318659795529968,0.47046605836491751,0.88300248748767252,-2.0459747333362261,-0.27069529073287113,-0.051819983956721841,-0.99217250456401984,-0.092418575167014488,0.58905892714619323,-1.3309452307424234,1.1667541086426769,-1.4917434185589569,0.29058593102937058,-0.076035857389702116,-1.4845888750661653,-0.71392714713861061,-0.90636339598600169,1.000873697979842,-0.77423349654072771,0.46428196769511154,-0.22203115168225368,0.69873124501563033,0.62962267050226661,-0.72593702855636533,1.4505858848448629,-0.73303972749959578,0.24444534006692775,-0.96380020351841522,0.057597270205873241,1.086262734746666,-0.6078428179694555,-0.71801881555508063,-0.88001346396585989,0.41839220575044717,0.45918846114752404,1.078709536183972,-0.49274505221482456,2.1364033924250769,-0.30387092140585636,0.19783057489761513,-0.07256366490715295,0.39604060389258877,0.60222555488607954,-0.16937720626621527,-0.83796896330156578,-1.243187920497236,-1.9123170521021799,-0.089711021167979119,-1.5888785076545662,0.87856671383778606,-0.94046289629118784,-0.0049894168506829512,0.67823665998809235,-0.14217318149502373,0.32623433129596419,0.54722341965664323,-0.3664517137778045,-0.71526733773015061,1.3079140908228781,0.36991707124080336,-0.45313591928366243,1.0616065807047765,0.44900002551355578,-0.8966306760968954,-0.92735123183695389,0.96802193370715128,0.36177205501482201,-0.34420655775972264,-1.783789632261263,0.43123203393751475,-0.050450250731508169,-2.3950813747498776,-1.5980171849780387,0.8093252515808107,0.4718164175258821,-1.0378176019309089,0.54494029582269277,1.5403993367340925,2.9280163906524161,0.44480502725626497,-2.2084701625506433,0.99012496570047581,-1.4583481464184891,0.38469133626856322,-0.59309138007785944,-0.88007903746058391,-1.936842827858853,-0.86837250873224281,-0.90612227658997391,-0.16905807897015585,1.0872755091333834,-2.1271692353268752,0.37159529210977932,2.2589992293098158,-1.0207343846525412,-0.88426252059007104,-0.086971061058975646,0.45641393399019126,-0.60602600759198255,-1.6118921656842387,0.78285156500163966,-1.9798133810634309,-0.5417595670384826,-1.2800805110184064,-0.85676940322803463,-1.0607337479366359,-0.76977504580963863,0.23196820400871898,0.32631076213923244,1.4172223062385068,0.33281324088415176,0.61054866901104077,0.22657866110417452,-0.72918709983321972,1.1414262805506401,0.30550823235113184,-1.5297268043283081,-2.1647728136926521,0.63818864502445938,0.028155592813620452,-1.7810477806073342,-1.4606906653265948,-1.0172425864868453,0.70935462157194118,-0.83144594503925517,-1.163309886547097,-0.95118410790073504,-0.42840071986653888,-1.0078682282526039,0.26292084758193168,1.5663732672029858,-0.42279801984393767,-0.005522574148225416,0.41980668164961021,0.58551325435053936,0.65455239499652285,2.1545873231752273,-1.7322763994238892,2.6175240250374157,0.23760230407042718,0.42514459685512829,-1.5311400461620828,1.254737699848222,1.1901362188281734,0.31890869715765718,-0.52558490203570751,1.9309463244250327,-0.075303740972017114,-0.82017157442283706,1.1382179205616312,-0.14671476361152802,0.079875811993430343,-1.0116315802378766,-0.27200705826998056,0.0439241693295001,-0.99294031679371286,0.60207866423935841,0.34298661217587056,1.3210566359689528,0.96608551091053929,-0.80712994153458839,-1.2382186431659992,0.063839808591837438,1.428554005075346,-0.063459902027372103,1.3704877647582592,-0.14333320859760493,-0.48509811516607632,0.29581518863240808,-0.63953416480704328,-0.35017941103454975,-1.4628503422153367,-0.29040466006929117,-0.02682580951205368,-2.0554900787844823,0.28961846608294922,0.08203543578507233,-0.98151660212333658,-1.3141703187131444,-0.48305498888044723,0.076319512487172836,1.7229467838305741,-0.10114206216053744,-1.0346369354643137,0.35575783234339364,1.3402988655981316,0.068260917895944739,-1.7452127489846354,0.37583785561647093,0.31468815467519734,0.76247123616808099,0.81485846537457363,0.2748100596040125,-0.53104186133329967,-0.12500686330193433,-0.3169206225368108,1.41232696911249,0.5285824876055395,0.14940147452048713,-0.74927157563012781,-0.21348602871936867,1.315273204427841,0.54635129805356097,-0.13342501720137512,-0.15889904283855971,-0.68642812166374934,-0.8534265530111006,-0.010881797779253242,1.0025794627699924,-1.2678339999606369,0.78818717298845964,-1.6475987453041769,-0.54873402806079441,-0.79380796180656832,-1.6601485749027045,-0.77985256427507277,3.0817191942320585,0.65870272507420147,-0.68966439158332216,0.64113931524937384,0.98367356929925653,-0.73713323376230733,0.093535195838525931,0.075237049341650847,0.87186892854329234,0.091341834561581986,0.57474011259216573,0.90121198606381214,0.61983646761798372,-0.43751041521273498,-1.7313192269321716,0.88565144509891702,-0.31901912373282271,-0.37994665786949655,-0.076604918862415758,1.0517064648896699,-0.48030580455581839,1.2315894603425181,-1.3150578135632405,0.8029956118657483,-0.015553141467970428,-0.22203236611030908,-0.76221135064498602,-0.047745571779763421,1.6554121161525366,-1.5484440496077854,0.28916602372601269,-1.1637016662459523,-1.0709668373280461,0.059187205029436397,1.0936255892078344,1.6230232100091289,1.0871723759759611,-2.0603827372568708,-0.24044109705198927,0.17220399119149332,1.046940727294903,-0.34103846156992207,0.16513684175943827,0.64957522175443816,0.53334884022549323,1.5128518536633369,-1.0423677987654678,0.31482347455438964,-0.09695584294983127,0.013274951934585716,0.65914906468520085,0.90679645336227299,0.6958953278498704,-1.1809750872310649,-1.2981234466496336,-0.63972146632536908,0.65310975942011695,-0.48058987888564009,0.69582452604304046,0.087539238891120905,-1.1055550809353452,-0.40127708768751086,0.56156585933318703,-0.2108225140109293,-1.0663275631465894,1.9877799242487115,0.13163166009601082,-1.2101159422854835,-0.29174208776241123,1.1254838324519849,0.94766414110196551,-1.9158104344579403,0.67519993118581967,0.44691797205788647,-1.487994496230562,0.61961588573928639,0.54728570497489293,-0.88532767830448178,-0.98849097465013125,-0.92565199443909407,0.7622759425549035,-1.0249100383469429,0.89963474778742925,0.017498230351654209,1.4760920432167324,-0.077481517270137509,-0.96239346479655719,0.29972876278992566,-0.95350138916986216,-1.2132259311190556,0.22462940436092133,0.88448069067376633,1.4378655153145292,1.5967077429090659,-1.2944745786332401,-0.83027820763169446,-0.53795066985609741,-0.59332590643674699,-1.7850200169981965,-0.88092296089915967,1.2014211754342818,-0.24089919007219679,0.62289607236276834,0.3745377831204515,1.0575622085705858,-0.46809780977810356,-0.73822202137544568,0.1425147023248852,-0.02778529560178622,-0.20913370880969823,0.9347254930180422,1.6931972624070344,1.8879051072739392,0.43982318563273204,-1.0019599524765761,-0.89551726172644175,1.3948699075464988,-2.1556000113548994,0.14563508583559637,-1.2800179411347723,-0.59412878399153857,-0.041892398013777754,-0.74576493591245607,-0.21870035287562059,1.2601469359599009,0.12739538927117985,-1.274772973900733,1.8744876675640973,-0.6082542513454553,-2.2266245032433845,-3.1631962927106252,0.071109499072677121,-0.83306834342397496,-0.51978842550516269,2.1157677475314847,0.98202229993702062,0.36987123053935833,0.42260732999992634,-1.4913068412758799,0.41569217121822077,1.3422841578340268,-0.66291521000781606,0.3272195213705969,2.1145706472357966,0.17756774020214269,0.99518948417256292,0.39895229800520882,0.2648539801883466,0.01254154367945925,-0.30532811932606979,-0.61873920373629865,-0.087524800361895805,-0.50246978141624143,0.55475672259698938,-0.091338707281882606,-1.1559031265241495,-1.0722317301843109,-0.74009237560107377,0.8990205147668705,-1.4457050113060537,-0.30454482989057646,-0.56369664992516422,1.4775076838782921,0.78984498073277887,0.60623360720784414,-0.97514227173025547,-0.11714785834391303,1.2021247882577366,0.10508192090461678,0.57568439995135756,0.65655705993120905,0.18005977516939226,-0.34305177248237195,-0.86375726589098167,-0.50993812900250157,0.422616495878541,-0.099769025964367153,-1.2441049493065084,0.41762251266220407,-0.0047005903420345788,-0.54683219805933669,1.2733665720927556,1.1489503521983107,-0.081533740327921503,-0.32470147965890805,-0.10182758505982088,0.38495907533617607,-1.5693789825360969,0.39777175778020052,0.63451151620536328,1.108512021181477,2.9509420322716458,-0.09038815918623605,0.18629280190845671,-0.076057426567683883,-1.8186709433460542,0.2544179489724081,0.093813197392472208,0.60408322236024792,-0.0076253391866446469,-0.08556295423908078,-0.85583239572909497,-0.63874878211163744,-2.1586638030918199,0.29401517831675805,-0.6422143813638328,-0.7428240605236569,0.78647108017517664,1.4646665543550708,-0.057829049425090574,0.063100166668101504,1.0124052522009763,1.4162883488769549,1.5009177662105704,0.16721424334107346,-0.64064912914618455,0.16677713024933993,-0.19267380998226288,0.46710684044109019,1.896026278085523,-0.44328188879695618,1.1069912935072805,0.51697462341477118,0.13145705415654266,0.790182344719355,0.30749137343944655,-0.22184195526528658,0.36299391284125665,-0.27028074905786181,-0.27034668568411996,-0.68878100310745616,-0.10023197687650008,0.76192869253894346,0.36971390032963447,-0.90395818606179579,0.081901480441012545,-1.4282209877556244,0.30831857969444448,0.11820167722956491,-0.60603159099368553,0.24428908329547111,0.081544609343859042,0.009882281418983686,0.075356013333629623,-0.078291985014805637,-1.7234731260750513,0.83449429781483164,-0.66976735992439529,-0.0013633878829129122,-0.43194506747470562,0.28519888023291973,-1.3193433115588666,-0.74474584488453455,0.062756353089326575,0.74051887469379318,-2.532929381431118,-1.3808044415558109,0.76141230562279993,1.9353082928674441,-0.86544087653676227,0.70091866113609291,0.4327677305373237,-0.14890035084392306,1.3164748491405747,0.12647381203485344,0.72587407210334287,-0.69440129463966771,1.1740978279516345,0.98714519376779741,1.8439136736151052,-0.71088173516823527,-0.22903146111675365,0.94691669148321933,0.67285150243851666,-0.16332625250863086,0.78930386573445932,0.45323184091226654,-0.38515300171944022,-0.78524636289525929,2.1677890458734868,2.0358416991153612,-0.049098294310331442,-0.33208240571946751,-1.6049909512881091,0.29772731939037672,0.23327164899465311,1.1154660137905412,0.87604197066074629,-0.67868482442210598,0.098503402850882313,1.321586268832786,1.7360891643183698,0.18319676386131356,-1.323565495357748,3.2725722493946123,-1.063881463028407,1.4482781219459253,-0.3218166964147815,0.26317699229120345,-1.1693585267337714,-0.97894492747042183,-0.67542940016917408,-0.36517283057854055,0.0020616778497075904,-0.94127776389248674,0.72636880540839577,-0.66893135727700748,-0.65744363110609627,-1.5236413426191633,-0.20179336923385782,-1.215800927748458,-0.78244336842932072,-0.046449417090360975,0.63590616756112917,-0.94268095414623398,-0.34886343329979136,-0.010696381397480529,1.8108115048631823,0.33801339665253338,1.8706778575440344,1.6761025484464596,-0.46194909165587805,0.34669662992248113,1.3573687977304547,-0.20486210444832539,1.372198155447991,-1.5459351117619338,1.4803906738087786,2.8232189375220833,1.2727349843093079,0.88395300461780801,-1.2805397084929118,-0.24320429887056785,0.33092013204626525,-0.40903893308485872,-0.21639145654077716,-1.1375932192840732,-1.8736137824134222,-1.2182809996278448,0.89996403411081805,0.85976041867413844,-0.16072582554250542,0.31278930369222757,-1.7251102717820064,0.49091188222160387,0.50017427301223527,-0.64393088703291756,-0.16105767041539942,-1.6833380626609267,-0.22382725267599127,0.10162593735854403,0.54384771801983867,-1.1038239067346658,-0.53939570219079658,-0.76181153985376227,-0.52163221947686678,-1.6767452375571334,0.79073717837838375,-1.4482970257419621,-0.078940925461268574,-0.12740023691337396,-1.2963042666053748,-1.1647501288058961,-0.23118824200211915,1.3263923434475149,0.071888625177600779,0.23421830835789637,-0.11336695343995148,0.99554003947022907,0.1806300204279839,-0.041589286969007128,0.969629328266572,0.11835441703141487,0.21791137601227917,1.1991448690282598,0.074233570751640998,0.99252187757633903,1.0989206435047685,-1.1008161174014583,1.4613790056318614,1.2079403619495692,1.7220817343526416,1.1882478472602536,-0.7609913385278142,-2.9837832931584662,0.011136412796064787,-2.2576121676366308,-0.42230391859841176,-0.56205787680509156,0.92157451941134205,1.0107091099697261,1.1341925546851028,-0.3549821310562577,1.2957070314975101,1.2350246380673506,1.7837225647771433,0.82980672947160927,-0.24262062322925654,-0.3109341703360663,0.74736834975777888,0.070344172952855569,-0.0076225309458971399,0.4526057360167493,0.97529477075962268,-1.8330295909082686,-0.69784041398254859,-2.5970476095897856,0.14232329059328394,-0.046907086432284188,-1.74958658286182,-0.62497028178342295,-0.46304259529153974,-0.006959275616163026,0.32636771034079132,-2.193767108532596,2.7525739145440435,1.0289370428097613,0.24082680027742173,1.8025166400144579,-0.59476435226249469,-2.7120086452771091,-0.38598514667206063,0.78960430330484799,0.15223867316353645,-1.214460813951908,-0.66355438279411094,0.87376730675674608,-0.42388783352619008,-0.724844128038859,0.16848428441699925,-0.57565493161934977,-0.57242699507139905,-0.25454564847196953,0.72686352180139802,0.04837296482064813,1.9451308651158297,-1.1189101782569348,1.2363725764560423,0.76457893205467475,-0.72402324304513221,-0.7397727425882592,-0.43128660867251306,0.34970607361732492,1.6210943257705892,0.014002317131433071,-0.96944086204425461,-1.2750323477803696,-0.7914723894669865,-0.94966659272171605,0.79577287933627261,-0.47242931063632804,1.54644208585593,-1.7472151082005019,-0.59305649644321889,2.1904508440669526,0.51275684606343952,1.002216340539607,-0.13963853006998442,-1.7425350658540713,-0.48867851260584133,-0.015320090061551571,-0.99353220385660523,-0.68613485367081284,-0.67636374973982094,-0.46409031955037738,-0.79423681093405984,0.24812437493160672,2.2369300283612654,-1.9777023076349964,-0.32872972262454869,0.96301100586540178,1.1448378744709773,-2.0208081410117962,0.043110168573266702,0.13813272923250342,-0.70784828338180061,-1.2648699327676178,0.58264175426905085,-1.1194757191928804,1.2566156101044827,0.48094426616005687,-2.4476000508152329,0.35517605983405998,0.087615209347480072,-0.29604568602692966,-1.1108486106235484,-0.65107765228295689,-1.4292856540045837,1.0098841937234968,0.52847074148197271,-0.54400514137720712,2.1577231513457611,0.032646528630109077,-1.3629974136199396,1.1998025544415716,0.21868626194935648,-0.23622223031882764,1.2195849666483711,-2.175748718199328,0.36480255938505596,-0.075108526119868887,-0.42073159302953894,0.12866030153794306,-1.467705670432158,-1.1311566488293294,1.2105617414299708,-0.23251638151138723,1.066760342152745,0.52157277597284313,0.66183464317715557,0.40732338239144633,1.7983801916621136,0.74092934329467641,-1.6611724835656136,0.1059582346437829,-0.6978922846029576,-0.15978290068249085,2.5211680276154547,1.1651185116800011,-1.4013038383372385,0.9767190332165776,-1.6283905032756123,-0.099672916454381796,-0.67320772425608288,-0.85701753270641778,-0.32799170401324057,-0.22877348751827961,-1.4862816073085656,0.089770519015526309,0.0024242695735317804,0.74785254858917183,0.14643565121389746,-1.3667874751290874,-0.060887295156591477,1.8385162941486162,-1.0660407241594498,1.4781352759237636,0.19828389023445361,0.96388882061753334,0.38089205405506915,1.1861947031701194,-0.54509648505187003,0.66381544353667943,1.8037261542070537,1.3383789255861318,1.0762389918138195,1.7170571364421308,-0.49910812190800291,-0.96867026560798342,-0.32911214906858466,2.1091043827122804,0.12494889770064885,0.5775679183080501,0.87298495554337663,0.59987394671316174,-0.13828608858503844,-1.723462526093527,2.0137784934525453,0.19695765026018622,-2.1225312268005347,0.13089101672367837,-0.24276262128949261,0.53487665406527407,0.2419438656099055,-0.29491201085357571,0.3190431303847816,0.58592123396877693,-0.62087960800549691,0.80591134287257227,0.52981440865799712,-0.76552860504361531,-0.37071289330664459,-0.50665432604077132,0.62269331333033606,-1.6856358942286351,0.60142735477608322,-0.68966908250694536,-1.1354307973674382,-1.0359283441242366,0.55307863151719738,0.76048894786777876,-0.67460857744288283,-1.3224270404227279,0.10951501074711997,-1.7837444123870523,0.22357614992368066,1.6491965462052907,-1.5704287318021313,-1.3328854591667854,0.63924765361994529,0.91787278380684156,-1.7961669709461225,0.097637337922947084,-0.38862789878047282,2.1754998868006212,-0.63659397860077416,1.2195998842375391,-2.1857217022698743,0.41419484702093273,-0.56006070783563089,0.50562879109210013,1.4337238910557417,0.054880023879390623,1.4433237239343137,-1.1118126940868751,-1.017633969144899,-2.5021881002618427,-0.5675967198513584,-0.12179114705778601,-1.0260408327836772,0.40560773096166947,0.67517371702735174,-0.60262704491927988,0.86523516820156399,-2.8564662013655084,0.30889028490152098,-0.62233356657117123,-0.25578767750637221,-1.4414820637590846,0.55618224721282572,-0.49971276864109349,-0.062632288227571331,-1.1161531839849623,0.94902394631133169,0.47938513923893711,-0.29246770798332733,1.5295214993122392,-0.3225698156541183,0.21467630546564143,1.6136972980098874,0.46969874325303129,-0.49032594837559396,-0.50766167736680368,0.49975920028477083,0.55988769996841348,0.43433967376755789,0.22412802986892805,0.026953754431795516,-3.2576959898070252,-0.94058878896971698,0.94515627614119613,0.12093669355599285,0.55599955250192268,2.3953267801696647,-0.03556344908590537,-0.7766967406320987,-0.99531020700226291,-1.2274342504863751,0.22354379406674876,0.11955379289235502,0.43497646799841111,-0.86661690443131401,0.2602826942318715,-0.37954410727607629,0.573976312723257,0.65844316585123552,-0.29856186533916323,-0.25565650087102693,-0.82800939818662767,1.0465556809445078,-0.54859705796299363,0.3366722018439639,0.67313093143312674,0.71926842156571702,-0.25722663991908618,-2.0586634056304223,-0.55388486079220789,-0.95831539293275481,0.59718288915583195,-0.63555886136887796,0.045549216715195726,-0.24570650723167556,0.48796350404026606,-1.5236650715507194,1.8427036153256753,0.43015152428069842,0.24151125003546925,-0.64643779423580805,-1.5318343680869488,0.5634546087611475,1.1963553888211431,0.92146317465806404,1.2323798666744743,0.021415472438343235,-0.19493542288940771,-1.1084074417148775,-0.72251850343192114,-0.64706158716414874,0.95335741383320871,-1.016239038007039,-2.1111078081023864,-0.098940196134933711,0.78489385227425468,0.88439475310296278,-0.38586451844159891,1.0550705480422,1.519599502829351,-0.72771677242148747,-1.7415063826667854,0.27282113741138242,0.08936393779022378,-1.0423661049012387,-2.6823562132221559,-1.0722326161687841,0.33540657299331417,-0.8805905966970492,0.37978101423632432,-1.0298861511866075,0.62438247345095599,0.82959925426342529,0.12245268278911704,0.59656154459460264,-1.3121959122664688,-0.72713463238000353,1.0996523849565183,-0.76531569687894707,1.4760401087392128,1.4265006908011888,-1.3788350557275793,0.27307606252086764,-0.61273912923412366,0.00033147443943062514,0.70887237508686085,1.7279925268228356,0.1143891275452994,1.1604125863059975,-1.4080797623387058,0.81791762118033629,0.35065963706312664,1.0736772513603621,1.1381017763164045,1.7305396250559106,0.34296601523087494,-1.644090599950091,-0.91971076738633029,-0.19038537104746478,0.10978179848394913,-1.7260877885199792,0.083049219661234658,0.13761614601532429,0.36747938488838611,-0.59216657474015799,-1.3641477361535159,0.89881903590920142,-0.04522370323310701,-1.2177371219474966,-1.4730174580116095,0.80917843324881988,1.618701081689343,0.38708488870883839,-0.1920763124387449,-0.51563992370734957,1.1056975010559842,-1.3282053342767306,0.36325826326241151,1.0984888681634295,-0.42750177051664684,0.39823020934999415,-0.15144495034821295,0.14722476313876673,-1.9693879283087521,0.55136921646522241,0.4531158977837077,0.14493901914563601,0.17209507020870179,0.77471731334494631,1.2875227458005751,0.64239608311725693,0.10894808824255167,0.7946492402595895,-1.1180695258086946,0.53741529410726285,0.045403739687830388,-0.22582846977005069,-0.41807671694488296,-1.7007823836089677,-2.2035619028768458,-1.0837664025804032,-0.064563373924997419,0.38975571002291304,-3.1968961557340085,0.33481403550753902,1.1519150651301096,-0.5192522422960878,-0.97716186124182003,0.79144923346136986,-1.0636493016017647,0.66135002808687571,0.90964323570326988,0.98583512205325308,-0.082352064502319286,-3.1974317477970131,0.74340241817857911,1.3109999662063287,1.442675214902144,0.17031345499015912,-0.68677803224348111,-1.7921294366503324,1.8422493136308002,0.23600950941906679,1.2117251471227171,1.0719571639052436,0.7808669456026559,-1.7139363158888332,-1.2416198989074752,0.5854284334364912,-1.1758349956085132,0.019325474265522388,-0.44463387140529714,1.3793517095486221,0.40828625209505148,-0.2023471206803707,0.71699844031383253,-1.0959298095309769,1.3380513114690478,-0.6065554654793115,0.43883884710480275,0.1514552808225525,-0.98292057125876175,-0.60731148071428631,-0.772431547533725,1.7066332269790783,1.9544934826518121,-0.13587997752150155,0.90742583127210308,0.48448084356012333,0.71297829365017373,-0.58742361738504778,0.039637242290333531,-0.0048646366914140557,-1.0910622093326079,-0.50759195878870766,0.33243125857205386,1.160559890611077,0.76104108482361799,-0.55031589984284424,-0.89320746861536127,-0.30330101796598274,1.2847904279062583,-0.73545054572940982,0.51405118967680385,-0.36114960132329943,-1.2943284417491858,0.38132188239434811,-0.2651267772955983,-0.30310639142463874,-0.35859650521274017,0.14812968300573515,-0.033247380497490923,-0.78429155086993185,-0.24554207626516156,0.80430494275940401,-0.37540590019757752,1.3574946913918517,1.423508192660127,1.9891715277466704,-1.2528145783165474,-1.1317199671979983,-0.61120316950746056,0.80324007343714743,-0.19865646538866133,0.76350426695207418,-1.7478346114168664,0.017862914278850339,0.8805823797789033,-0.89528549648929079,-0.059367012056689976,-0.35715927125363844,1.3790540369944913,-0.32837712302200678,-0.41886116297793552,0.64178743225772561,2.3012201404316159,-0.31800947636651078,0.049167271376480019,-0.13565826677221027,-0.39890450214941187,-0.28192227936763609,-1.000305697863404,0.89803888367200846,0.44293544783745992,0.99646495320595874,0.82366972031041041,-2.0901268363512222,0.14117211694486548,-1.9453372483281584,0.67238164638321196,0.62751699433002994,2.5179009861284278,-0.45807999366924318,1.8250455001665487,0.98868189966998099,1.2682730221764098,-0.2272749139674245,-1.8099070227587915,-2.2463640622864824,-0.60087755350439287,0.24084969395906344,0.7186543313101752,-0.57248679032594441,0.38870489939446956,-0.089654744638989703,1.1278115500475172,0.92699225051794032,-0.16869740231040053,1.5914461248375629,-1.7615152671629573,0.17159844530456186,-0.34715990643252587,0.28038033692884873,-0.97305278384502703,-0.016835327193441996,0.22762387766186334,0.59133797907475072,-0.90717347173101937,-1.1275328155433266,0.67546987131569924,1.3081914163169373,-0.35964265139570445,-0.65133197404074672,-0.76238345512557693,0.010671704062369594,0.73696536052116046,-0.87843920032692835,-0.19645814558650052,1.9130118652524555,0.052700983457881559,1.3680719640177794,-0.39004983396937198,-1.2106427668800113,1.6567569350303963,-0.24071151317977166,0.64346984099704585,0.23400952173869818,-0.38202743176230114,-0.71468205289491127,0.18694949707493533,-1.0445513289873172,0.099773939954088328,1.73510735567624,1.8816486624530426,0.42186546108466766,-0.10430096978502092,-0.53634770087632111,-0.77086241887869822,2.0952127834813528,0.35860963149841213,2.0391503752236071,-0.14528100550797499,-1.6225353188771634,-3.1628314759170353,-0.27232023256091797,-0.45009554899741994,0.18364047241240494,0.73544221299993173,0.26827578622964943,-0.8759643338251456,-1.1361449019922829,0.73207624048140618,-0.91939181877949239,0.55658896003219349,-0.27259893644354849,-0.75287705944824179,-0.036734303660587601,0.16277921313531957,-1.1882278981812722,1.0451735632064414,-1.6085412229709255,2.0221984837254139,-0.0083557922016038681,-0.21652903182790217,0.06095849661070156,-0.18513707137325239,0.6994854643869548,-0.90693654283142189,0.18950660345631071,-0.81130224262495532,-0.30416996854464767,0.0016528215224569376,0.94556425987260018,1.4775542947892448,-0.20420965087191248,0.76875696643653824,-0.65194988189424163,-0.15753385039743895,-0.18341231181058429,1.3585476806308667,0.13174448339462871,-1.1306373060138308,0.53111863668808001,-0.11984910670263831,-0.60147587404519609,1.336840679207989,0.95692694183277116,-1.9045193700906471,0.30248648264136418,0.050409815259983518,0.44193783082413074,-1.2182165199740691,-1.361533439819725,-0.55923313829397681,1.749746071551501,0.25044089210657478,-0.59722879697398534,-0.90947734407453762,0.42852738086708586,-1.4102784646724087,0.10429412952703648,2.0340683912902522,0.032313877935687622,-0.38458657558851367,1.878636669075235,2.6722510600077509,0.38995773961560742,0.15022624545698574,-0.50946123959435674,0.14881608398852211,-0.092468509959403866,-0.70630972540526316,-0.35200220654600783,-0.75003756613730843,0.28119781172759289,-0.19676657806193032,-0.29528825964444838,1.1513880135017449,-1.3072372041815068,0.98205109944003022,-0.62872947160317172,0.22274470900839494,1.0910570453326363,0.26478597573352786,0.35904693213449473,-0.60622081566036634,2.0521254926753856,0.052199564337861874,0.90200732810287509,-1.6329234592380242,-0.49474031334895596,-0.1265046069683376,-2.3006723629623145,0.74602254888918706,-0.40104419669636759,-1.1717425835273498,-0.31017747630924436,0.060616755346737772,-0.089150863155088939,-0.63921521136507253,-0.29349319912975969,-0.6750931913145507,0.85515893338798532,-1.0264256296177348,-0.015824095376493059,-1.1314123871534612,1.1219882733503781,1.4683774770307785,-1.0062611164922115,1.122817361647048,2.04970169459944,1.8649688596640175,-2.8335315411512596,-0.9982059438410732,0.36056310619672777,-1.7241414254022462,0.58926578756020309,-0.36265179749948195,0.17844155527987823,0.40558438426546223,0.41419772106583919,0.43872461646031541,-0.82690438234341512,-0.31196987312869418,-1.0215299847287322,-0.55739801565083813,0.38580503191558663,-1.7116221622992471,1.1547264126046157,-0.32401659850888997,0.20997498232640507,0.82083058867369307,-0.45418752390985739,0.38175474480513816,1.7522418827038275,-0.18853490574897597,0.82262968417487936,-0.70298655056141957,0.032046072351877196,0.30491617058608911,0.63829024777474286,0.4954989295109935,-1.3443489801617132,0.55134803308631153,-0.28587689055898391,-1.1660730103851453,-0.21707461974425923,1.9093596055512894,-0.40296974786003503,0.81150641789748457,-0.30371209874678784,-0.92131672981294743,0.012050468297628862,-0.51682674375073934,2.8716403515508802,-1.0460383274743972,-1.2750812227252495,-1.3494221454980997,0.10061101261178089,0.6576755449700421,0.3319125163297067,0.81258213249588374,1.7589094495554196,0.34450275932285479,0.45712360816046338,-0.51274443048647722,-0.64241604713723632,-1.2825255381378051,-1.582190384235417,0.84192574968960932,0.36363154177755058,-0.31739109299702051,0.18731853386518629,0.72432770136623581,0.88836688990084078,2.500068128766328,-1.5682416928934033,-1.9888659947135334,-1.1464795343580856,0.050347488583898689,1.2386128581294933,-0.33412603401938218,-1.6722642561212624,-2.1798552725538443,-2.390971288421456,0.7684976616633139,0.56992118200218278,-0.38224963679418011,0.31078114678003177,-1.7254090427430724,-1.61656737512063,-0.0064533403300513961,0.17041768946946506,0.27932573167092983,0.75196225516943371,0.084628598491799628,1.9475173469443907,-0.42155184408032698,0.61861475797222243,1.6176481148340089,0.50319144573597496,-1.6028355631808244,-0.24348176557802295,-0.60379784889833765,-0.12169869750240803,0.42691853989689632,-0.0083383495518163722,-0.29467941296829597,0.72893542841288905,-0.32545760252133055,0.058259947744697213,-0.93408951948105901,-0.28590437294115867,0.57523071730272468,-1.598826460061241,-0.089677186542370085,-1.5166051500635471,0.83798218955672343,-0.32799721516991742,-1.0492865610287743,-0.022024870292661786,0.83113905188096315,0.16162607075891361,1.6862078935492986,-0.32630863660192061,0.19085853016186871,0.65796053482459937,1.1151440398793659,-0.85062316522028358,-1.3057939035124877,-0.34696803302984708,0.96821015711937919,-0.28237491118112273,0.16310121660694665,1.8911730516956959,-0.6307555820244376,0.13029098366124817,0.14651704825998293,-0.56988604250444996,1.0264740032586166,-1.889641889149283,-0.94478506452354549,0.5269760387196627,-0.90160236470218547,0.49825058235333164,0.50097870654454157,-0.26756449315556041,-1.1933210693791201,2.98801661248035,-0.86408945605828291,0.78566524396505566,0.62158824657382805,0.61022413505845474,0.82279060934451564,1.5985689681964326,0.14694780101604701,1.7012860400461443,-1.2859657265234929,0.24870285563956473,0.40375251204624857,1.0043305384573205,-0.24383612691097545,-0.55063413632913705,-0.86043933694119756,1.1400846560186433,1.4465264002040668,-0.047629873582166214,-0.043078240540408888,-1.7497597183999023,-1.0652581453765879,-1.2374249689995187,-0.29819165381797624,-0.34562771452758101,0.76960521891993416,1.6841708031685676,0.72767517477760324,0.65509342245201552,2.0908059214836112,0.73848678460778927,1.70820316615457,-0.24026184688928087,-1.2162759874110167,-1.0436895122309198,-0.19517044318315394,0.91930900838170626,-0.43026528786575158,0.68000025984288803,-1.4130128314764372,2.2769239532000429,-1.9912557474039987,-0.63059552252549278,0.11029268745912658,0.53741187335419371,-1.1326461815457423,-1.4103280875970905,-0.44690730265690526,-0.44368840405506593,-1.1570705803346721,-0.065078920889642219,-0.6002841696399065,0.96993444402536355,0.66241065426424184,-0.88108933701598391,-0.54212598385279565,-0.39870745065184909,-1.0916726794787708,-0.41190044800238895,-1.3545215701956637,0.52252892215839453,-0.64085544822985807,-2.4748850862474279,-1.5972418856329627,-0.04681951319376413,-1.634677031236768,-1.9334760199637668,-1.0338562087651262,1.5823420651385478,-0.48617601117639803,0.27513328742241394,-0.50681145264891547,-0.70070672498258424,-0.13623393320769148,-1.7886052712023268,-0.16909305829372748,-0.72416448249544596,0.60154671451493447,0.69218894524091434,-0.21651034481296602,-1.8473139381184549,0.99840615818010858,1.0355971485450772,0.32986734705091109,1.2619180801198795,-1.4613235338419965,0.19020071290745549,-0.083055155932240041,0.066884003269406023,-1.1528166249458791,1.128864348327268,-1.8810083976379159,2.0985382850254162,1.0050591452993911,-0.31957961805702773,-0.23085143773312161,-0.67342223112903932,-0.65922645397121549,0.13847573015860651,0.4287709516877537,1.625399949374996,-0.7619234895240693,0.56354203431815342,1.016860287476735,-0.76666534492360194,0.70161658763935708,-0.64221385512483198,1.0722651730863761,-1.0376579224223084,1.6361269056817356,1.1302981316604797,0.58214677366645862,-2.2523783754886031,0.33829975784456173,1.2220698245996433,1.2886251200044136,-1.3216170979502448,-0.20371977812519504,1.6644554443265833,1.3224607868530396,1.0423011585792636,0.61798227645193593,-0.14158067924488782,1.3626537631779105,1.5291926164896605,-0.16548077579363518,-0.76648672094255177,-2.6334055124996407,0.57435357272221432,-1.3876054189639928,0.63455027297658151,1.4732697089794147,-0.012754067669598697,-1.1941610810908043,-1.4477957934195413,-0.76468745935165183,0.77029816163683484,0.0067719620935608937,-0.054323521329244243,0.42008003316174214,-1.6458635491111784,-0.34333166399067533,1.3084866000778599,-0.81170105875948872,-1.3250497726934658,0.16260433708763161,1.5113604415512936,0.45857835314388007,0.66820158196418022,0.11774147744382288,0.15213674024812773,0.37807088832666386,-0.78914583778872094,-0.30833094862548416,-0.28721923388612802,-2.2651672870026434,-0.070086817364338014,0.18764933104479406,1.0419298321582668,-1.1137918601304566,-1.497849124675227,0.65494178261344294,-1.4015216247480593,0.9252682053639224,2.0954438562411752,-1.1198455854271849,0.62747450397589388,-1.3444826297336858,-1.2422146721195026,-0.43688513449125599,-0.74039961106530017,0.044240671968285503,-0.90862044701340339,0.86238346618124817,1.0778541256028751,-0.81664385727899069,1.1510453215393301,0.31208991699714395,-2.1160706187496627,-1.8524575158109569,-1.2909960566109808,1.0237968830717183,1.1520917771993693,0.68402613797473599,1.9001068060231505,3.2698014216607665,-1.0468239517852191,0.11396358962165547,-0.56513635844775123,0.48016482988156167,-1.0344883898379091,-0.084397456013816,-0.85025863596223672,1.9315217215038536,-0.90715999519847235,-1.4351864176893958,-0.095058280458047942,-0.79512397042460004,-1.5647732782198231,-1.112531541435855,-0.3676495338154056,1.0042723452255156,-1.0701778513335398,-1.1658140856438903,-1.5051264127280952,0.65408782690598088,0.40167365459097448,-0.064358383125041704,-1.9650293888017505,-0.91808587726116209,-0.19496263202280928,1.3616759326837311,0.22130247111388529,2.2450497195332164,-0.96128168934372038,1.2450427807332638,0.59170149246325554,-0.91904322906577729,0.5487202564549879,0.12984365887308602,-0.58075447004541836,0.42281038294859358,-0.017508622801925489,-0.66512526732119848,0.68780764664785321,2.1663981428484225,0.15078466641884072,-1.1409416177208356,0.88353319005323794,0.47421401884528591,1.9665859442789935,0.73810400307077462,0.76108442790607544,0.2129323650797553,-0.18059153995113553,-0.20289321254914591,1.1144114096141478,0.063951411440584638,0.4140089875326407,-0.7003695782692273,1.9570524580820157,1.5701686937852828,-0.10154236501820171,0.36153969351488258,-0.99610885479650713,-2.6329640744555367,-0.47226754214530386,-0.74840355028451999,0.085610332090812244,-0.50705286450368114,0.254450251215525,-1.5864194607550592,-0.5907928396379778,-0.017070970717744108,-0.50538054251745701,-0.80895740323614873,-0.95089725252310686,-0.39198930783009978,1.9654593401077876,0.076832708859272958,0.87604373398626789,-0.038026066993956074,-0.076692994359094394,0.92762427290578719,-1.8368248886248326,-0.1327626932961006,-0.026809181019740124,-1.2925187897315393,-0.84275194683281651,-0.44537018152382074,-1.6116443194659562,-0.95680889551574178,1.10861670358924,0.3596454288250624,1.8314188363101738,1.1823047485109865,-0.65684717716613317,0.14671942609150224,-0.45840630202387,0.88914080742889401,-1.0765197302177107,-0.67621498963430182,-1.4187731773955694,0.83851135152560941,1.2777895560136943,0.66731606523577658,0.20513858430876,1.2253466539348319,-0.64674228336880812,0.43674826107430437,-0.88382756040954225,0.80171933691448327,-0.86910494824430862,0.54272695584301822,-0.089629582457322596,0.47250909849987832,0.050144694058699611,-1.1764804311008403,-1.4885753866407028,-1.0424210994281868,0.055489437751783909,-0.12213687726103477,-0.058944378404567552,-0.54464139651473242,0.90342901317679769,-0.54088440780700153,0.19435191296905086,-1.0792684703552919,-0.071170143889963872,0.84807200123113136,-0.24112301449729237,0.15348134985724859,0.3535819835010946,-0.58548772146290318,-2.509126053545061,0.59774063418186896,-0.76849787966636485,-0.17066198764557736,-0.72907635392674131,0.5928871455203113,0.57185457994999223,-2.1623742199380707,-0.99091015717216835,-1.7429532546203839,0.73967128280665262,-0.9816646909968425,-1.243762956389675,0.2213465295945759,2.3644479072275137,2.0553297852710806,0.16777470912777029,-0.37588842075121742,-0.75483150500774798,0.86393293601048715,-0.76118958440639806,0.15526592881456233,-0.14997567867301864,0.89381626434432837,0.47271092005487997,-1.0073306583643491,-1.2952207236983084,0.62570473502921797,0.11468944191613828,-1.2860188912846535,-0.47710457775046811,0.41092857881220446,-0.3291249665956123,0.56498547209018357,-1.1994963676359114,0.13427704785245745,-1.9038545560540276,-1.9165357781986991,-2.9182413265325082,-1.9472164449008205,-1.4216567404959191,0.77390520421328346,-0.2284547284125798,-0.81958538439811068,-0.44745941707873488,-0.8154628385115632,-1.6154412036809036,0.91706811391792498,0.84544163317225063,0.69264847763161796,-0.14309474002295722,-1.6836237255747957,0.30180050418235405,-0.67898424184592099,0.64655471230804451,-0.16147782613792591,-0.29715493398681542,1.5437389847671605,-0.65556052725418557,0.55865077761491055,-1.2375701983473624,-0.97231876952648133,0.14915095328089331,-0.046039336983815869,0.65087486476949463,0.99741930177231908,-0.14121202543581141,-1.2851450623533254,0.25662604294019953,0.61725002602151013,-0.48921920132895325,0.51078619933332858,0.96858138198069044,-1.0717837319858965,-0.34272901999815403,-0.71249497911258264,-0.091215390769488786,0.21357617165173468,0.56030892058559867,0.16317461205192818,-1.2870489018426792,-0.73680032005798501,0.22897970322737948,0.43083215972613559,-1.3565532056611738,-1.0313977832581025,-0.4443573934037478,-0.80143747158699408,-0.80112491439297762,-0.6225379505422014,-1.0558936570539663,0.76253515764318081,-1.6261609351295139,0.04866956560049842,-0.45668530570720484,-1.0147094901318776,0.44816382690381584,-0.82024732142454881,1.1912276288004104,0.90644495933689762,0.33469806203898617,2.2183701403662046,-0.84526590451693184,0.30029163860234509,-0.19728062609522501,1.2109094556639328,0.3568824437756003,0.40427351210712414,-0.49722665723437698,1.7643944417292308,-0.9312334380839411,-0.57105382966145479,-1.2302519180976039,1.2123214508933129,-0.24447495885131643,1.4539820582020586,0.62492950321863716,0.79277180273363057,0.49962723972916251,1.374936146299415,0.74128522677094355,0.5675973351553858,1.9611767422835991,-1.1119888540165521,-0.54838442445204361,0.54223188273199185,0.29069069321616675,-0.73759254393001694,0.53412299424320064,-0.27620982954743289,-0.31339464178261561,-1.5005938149683338,-1.075859957082971,-1.2027501099110136,0.60108003325609238,0.68651378945855779,0.17059361666862946,3.8048553098834601,0.14880702933562806,0.27791429909294907,-0.57949504777004945,1.3803584441490622,0.40595015083146052,-0.10223961429358816,-1.2083906301960556,-0.14989106095022894,0.23000316979372837,-1.5649347451907558,0.41591719721857984,1.1740957079011507,-1.2835426699459012,1.0002749156510513,0.24746335017456242,1.4106257625788723,0.73632396185706184,-0.75298703529729449,0.9903148542404977,0.79208891342779253,1.2995198448487681,-0.38859626649092982,-0.91651068111179823,-2.0119105392749992,-1.4798373116423951,0.36700210346594775,-1.2872255513588875,-2.1750912612892512,0.49677727591332888,-0.51674868271958974,-2.5335123636298653,-1.4683486226598745,0.80774159410838198,-1.6406101542355624,0.84180282925197458,1.0897581041530247,-1.5015215955625987,2.5359485252171523,-1.3124458421615144,-0.35177126689553256,0.8192986850541929,-2.3515725712799078,0.56321312982786265
-1.9799524149425434,0.46673136628222711,1.3610099910490512,-1.052523457758243,-0.77169455654909136,-0.57808932109703393,0.026098084814552502,-0.93147862187867658,-0.24951840464432529,0.57717188751136439,0.038143278754512608,0.20130142502299178,0.027848008607863236,-0.070606092649795046,-0.65991781436578834,-0.19154861137189633,-0.046918359108279704,-0.40071688473676387,0.84908229610522201,0.074517321052013058,0.51320319792979641,-0.34741617794544649,0.8631655996968387,0.63928568255890084,-1.0154068425230838,-0.0085927205699699201,0.10455741932867599,0.90646918393562392,0.80557902627461286,-2.5046872545830934,-0.69627012355763407,0.88440660337760324,0.11846194804386384,0.59588779037971384,0.024142603615961433,0.32965456584491093,-1.581351386759283,0.75499749554896334,-0.29029191444418506,0.052665347864708105,-2.3096579797586569,-0.019526201585118974,-0.76862028588997688,0.57363276484748948,1.6323500058786191,0.29004713793599918,0.64047001746715226,0.73071666733968821,0.58561388825261285,-0.70843183397029674,-0.76725749385482778,-0.17275366290253588,-1.6411294156926668,-0.40266559659027146,-1.2545937203321353,0.43873886913005755,-0.15678729263622812,1.8927583295643473,-0.2091417699811576,1.0537824321353519,0.011567055137680401,-0.67404457780867855,1.148937265864117,-0.40303447320292202,-0.45073924107255348,-1.143184430216402,0.47806416270871654,-0.47195097545250281,-1.0941886610448546,0.57523196151782718,-1.71102494927892,-0.51572673398905378,-0.44954659172790412,1.2452029182373239,0.18298329875690128,-0.42845459350378956,1.0100743263417356,-0.22704328749941444,-0.34604096462168704,0.72897520145563099,-1.4064418781092014,0.2933955068600908,0.065591207757069725,-0.40272805204894874,-1.5567360287142711,0.68728629579934375,0.92635245980694125,-1.4144835307853239,0.21611165811343838,0.62329502343267562,0.45696320357275733,1.5286662577016839,-0.66511247950203622,0.58908538835078728,1.293372814544723,0.43894659140067482,-0.76303489052309492,1.3171896999361836,-0.49954537768376778,1.022004029998332,0.41901423591765813,0.24926045246494677,1.6584244727720963,1.1003897630086925,0.75886382431081734,0.074632174898696238,-1.2485029744167695,0.14699739978162918,-0.059746962630174712,-0.81306336654851008,0.48473872197594264,-0.67618009090072118,-2.5791799510782871,-1.773606115172045,-0.054621085343965037,0.13488780228070185,1.1501201687995488,1.3892337364644998,-0.84316853976212081,1.2856963661638889,0.23669658272129468,-0.061780129090261725,1.254788990587413,-0.37488997419547915,0.81723940600949008,-0.4139183225271974,-1.6020414642051413,-0.39680063614380318,-0.44933587454882112,2.0351634121834259,1.7294444361744237,-0.1465495562768184,-0.15035568722318193,-1.0585040885064434,-0.98940495659452354,0.43963106535056357,0.43463560506666399,-1.1527548558741643,0.062046513263160318,-0.65068593747108883,-1.6877104071595215,-0.14890983899775337,-0.74639535752628994,0.92289272341825412,0.69010581877888089,1.3733395011818617,-0.41445610842753794,-0.67698493935537196,-0.76253481186747518,0.22796765621954207,-0.71385661521112176,-0.71077205391961917,-1.3532317621325196,-0.85684131036843714,-0.10589159332692522,-0.14308113553635496,-0.26212713590583053,-0.06037377753913583,-0.025356973303048241,-1.4236991745172247,-0.87238690931638807,0.29620565061517429,0.49718149257296096,0.42587671046107967,1.0098071108704096,1.0413415888885182,-1.5288771762654292,2.1010377044258548,-0.16215836120010838,2.2310265444238042,-1.475385655123852,-0.1293910032688412,1.3598693365470298,0.20790257525156722,-1.2056147188253776,-0.69623972227113629,-1.304073973292007,0.82164095933567405,-0.59708657098432916,0.32168715187223951,0.34765033402042672,0.39897257851992091,0.66502080364037952,0.58380469032449234,0.27311823947554931,1.8100597825010079,1.2181154368086593,0.51268873385698721,0.97679018667322415,0.027821209078201507,-0.69428427022586525,-0.52042982862550402,0.030369878103144583,1.0684269685125218,-0.45945226590471788,-0.27824683418292684,-0.55170323829860224,-0.23703107779689597,0.50744676669384392,-0.97167075760569532,-1.4838828317874158,0.18345592036053951,-0.18612066097321087,-0.89837823206110667,-0.79357583325316339,-0.38534239695808148,-2.1606512408989769,-0.83288782834458153,-2.5317652905033179,0.2547883302523497,-0.75851378117147128,-0.027969859324812787,-0.44839562845529202,-0.1519921718579906,-0.40091294407070249,-0.20227435299925967,-0.18035997189833569,1.3650378134160919,1.3797542738997708,-0.17636314349863513,0.59491348536123856,0.3412793613205809,0.41068207506878196,1.2178036086409629,0.15936503374856226,0.64019206284773522,-0.19541412893239585,0.7408265292440287,-1.3549370945538164,-0.96607917533722576,1.2757036002117319,0.92822264733431858,1.2475156319161076,0.71149952158222762,-1.0194416926766696,-0.69335260827706102,-0.9963425300592792,-0.0019564924531579675,-1.2694061654146116,-0.41213623180662301,-0.40024695953770628,0.67091501026745615,0.44335573730222083,0.2112889587957634,0.74061648363502719,-0.25517348572499049,2.4906508880697564,-0.31852337567696282,1.2872698581493651,-0.29026577348926347,-0.094196541611303308,0.44115164749045577,0.71456897269613251,-0.82162204828120378,0.68677756293678294,-1.0171063053543514,1.3552156390470482,1.4787757265398918,-1.1368411422456735,0.45171382183811154,-0.2823743949165835,-0.5975358928027813,-1.2952759137059697,1.7435010400568942,0.46633914577076052,-0.6685667854968218,0.58885442871522076,2.1965261446389368,0.098626108335285373,-0.5859549777864328,-0.072932919338735497,0.13403309056969637,0.18110619506684547,1.4340190155132295,0.86279341456361436,-0.22649800746807403,-0.0543500429930205,-0.15893331163714128,2.2980263907443597,-0.89340392081452591,-0.47089460434345803,0.74757802857714295,1.0299952364057781,0.38129533306540014,-1.7029932011827638,0.4907026719110712,-0.02129109195546746,0.54083581992595231,0.11030912863835732,0.05475826506804226,1.1610741321996436,0.26899393712271508,1.5274670358895823,0.84599905372471806,-1.5285351709255461,-0.35707860328652785,1.6022343253869633,-0.13277728447242743,-0.15169614336291537,-0.72971665903343153,-1.1698105456027557,0.65188882859643005,0.14942198797540765,-2.1288076293091276,-0.40024107828464017,-0.13425747006764852,-0.46792957991143647,0.59606115126979897,-0.53602583891281363,-3.2652483751299637,0.74100877299602375,-0.49990300125487364,-1.1847231314866544,-1.4013134892598471,0.057851536566361862,0.42152388566984333,1.7005004495283842,0.1423016798590426,-1.197416377141491,-1.2940253741773042,-0.59780422256650434,-0.43685611643453992,-1.7335760212684452,-0.7342746173841338,0.74905693024383102,-1.2967250195064821,-1.0926777243308683,1.2331642339406805,2.0839737030255128,0.62872024353020939,0.40746944210649277,1.6924330658335875,-0.15235242394598125,0.94015985337397245,-0.72417333056068212,0.23578074140965435,-1.8675035582612531,0.34284597823188723,-0.0069473398102186,-0.17712004753545299,-0.33418700051114419,0.13570869146026332,-0.81563287939416473,1.9098643889536082,2.7647512755967378,0.16449113375518243,-0.096922824677193306,1.7548361459784709,-1.0215687584531503,0.95792994090447126,0.64666036797181337,-0.25617034147289891,1.7294437006327561,-1.0090769185471371,-0.48608764290080569,0.12279479407964271,-0.07735111345579343,-1.3464134133079442,0.25124596665673177,-0.083956820654967484,-0.743700854867828,-1.1488330864064296,-0.098896909792537582,0.55785269938272053,-0.15364239596625628,0.84251769396511966,-0.26608130381015527,-1.2051531804363551,0.60752071187243217,-0.17016458003551199,0.534868795154126,-1.0576494243385153,-0.96248645335747274,1.635602154372908,0.44933742865453485,0.42969287185974381,0.72386079855728647,0.55694383375702017,1.4049801007039979,-0.38976797489032478,-0.57629547772114131,0.37831173064796714,2.3343910279318369,0.87701976580396857,0.62071365118236754,-0.090916017767684668,1.4005925038217626,1.0626275153795883,0.71919707469808392,-0.25119429804595511,-2.3130617001990221,-0.62567905859391815,-0.03809659540392403,-0.041790228975948349,0.70823532652565802,0.10339094363330806,-1.1462580293892732,0.4111669040384599,0.065957214369804479,-1.39030495484411,-0.58133968878593978,0.35123629181165661,1.8098559118082944,-0.70925164316264533,0.35464192953918422,-1.1720183220048439,-0.63382598377700383,-2.9027243479054938,-0.16149942024521732,-1.3950057825879512,-0.31988258235429479,-0.95528051101058475,-0.52165924546308839,-1.0999827225727552,0.66149934417658451,-0.29242695944180813,-0.22498955169851143,-0.80563544489029348,1.4838760276773162,1.1671828587510451,1.0868924197556291,-0.10367441358783554,0.5989072391318857,1.3179630046463231,-0.89298927373125481,2.2095680496528534,-0.8837906065670843,0.32632727378361626,0.89501309221042225,0.71320550154333073,0.3102330073348793,0.16993093789551617,1.1841734828937127,0.62419121840514735,-0.42685398865776475,0.025368455875538563,-1.3545312294653071,0.60604891171952791,1.5355676057522487,-0.72882971562856558,0.96296478130504759,0.19886849964771133,-0.93198118729669732,-1.7019269800187737,-2.4326138763182956,-0.63687519116725311,1.6529895703255812,-2.3234760691657792,-0.18984893813907344,0.56304909726111552,-0.027536945884221099,-1.2594950801349754,0.10653222158894941,-1.0155144390146047,0.51943575529988695,-1.1716059788619475,-0.31471531121678303,0.038636004188848244,-0.23748222736459837,1.3996321688833289,0.10398345999010015,-0.25133818576312028,-0.079761325731311089,-0.78088516107495198,-0.43815492334898981,0.55112296024923613,-0.32947189242600156,1.9297747130215632,-0.49871460765632847,-0.50393326324888021,-0.23406887944015506,-0.7473688957393223,0.56382636516080553,-1.191731441424237,-0.15224063256754619,-0.14130590863303957,-1.0149836378712089,1.7168554080151632,0.26455551198631572,-0.056700842372392583,0.76455628527832675,0.59751779155068063,0.48340277677910276,-0.62251568975775451,1.6530419428725698,-0.92936886970001753,1.9993786608296353,0.49180663326940605,1.038395087859225,-0.2549749155412917,0.62280535577481877,-0.42603718845335253,1.0332416969426541,0.25948765777864746,0.074905265729129075,-0.17475550467397141,1.2751785066959773,0.27043508657102577,-1.9411601939009855,-0.1800269934104434,0.80698924986102183,-0.10917008887166199,0.34162603805592506,0.5708844550682296,-1.3790072200517094,0.021963702305970549,0.65115947512370931,1.2531581026700978,2.4875546408325779,0.26630784965654164,0.73580793620567109,-0.45790067559412395,-1.5478654799509122,-0.26659855942469946,-0.28206183661416251,-1.0801722531009079,0.071086366132587897,1.1164403463209649,-0.70422231557104253,-1.0921543129856501,-0.60368055351926242,1.8592846659831863,0.35920789193340635,1.0876688629099203,0.50085906646043143,1.8505027718127782,-0.36203573279894019,1.0497250746955551,1.3998105599424799,-0.18425839996993768,2.7225716695571318,-0.32856784908485182,-2.6831951846149251,-1.470355381266069,0.31303153351451135,1.44944187901761,-0.38795207047338992,0.7121420570701088,-0.86053725710712481,-0.70831733839467892,0.7362018727788765,-0.077434978708319654,-0.69193258998887963,0.78900402237506106,-0.16079705978911052,0.6453397829243146,0.32306787787218333,2.3868735739871383,2.1519927349913601,-0.69778222160617465,-0.035723641985513789,-0.16865456660303485,-1.4062939118435147,-0.26666961877827983,-0.2855263430968088,0.23090236305951023,-0.091061671216189494,-1.2119078691443281,-0.587124358132737,0.38194401197369576,0.82350630216282217,0.26173529187142092,0.94601227044138436,0.41276706179448514,0.13788145195926224,1.4908724594818203,-0.43689924583793183,-0.095662849086173576,1.2206562984141152,-0.32943898487372331,0.027303712059774599,-1.4834274789857349,-0.5721522784627413,-0.76926500890551364,0.26420656532352854,-0.07661650156589464,-1.2825230466146846,0.95403472854932092,-0.76334297642970428,1.6401083991658725,-0.65134868615727781,0.42422703259626354,-1.019048404508742,-1.5855659020282697,0.11665497159281391,-0.88326826522013813,1.9451425340474113,-1.6603288255397788,0.73069654625682134,0.17680853517659531,1.266765506865503,-0.28810263433810601,-0.26346218528570303,0.14046079523621388,-0.18274810213771769,0.95312481818275929,-1.4308586785039918,1.28112640965963,-0.081766660869993027,1.0521492846040099,0.72539918566185757,-0.54899198230680668,-2.5033488217974025,-0.704956781169785,-0.29612143775745114,-0.23442953593385077,0.24701376987094423,0.53320046111009323,1.708144707160232,-1.0088373753854225,0.75070458493316439,2.7657948231745775,1.1928923884135338,-0.51223304590026397,-1.1627456801523792,1.2495912438665813,-0.70315849233622829,0.71814310775301726,-0.16678901334028162,-0.77835152451537037,-0.087909721289508955,-0.4042930230980788,-0.55888112459319728,-2.2731751827402631,0.56824903066037824,-1.4204561764950547,0.67046479726143393,-0.084045273215616167,-1.3125546534914025,0.99340757968199289,1.3526527898795446,-0.36182242108991952,-0.5448089246516854,-2.0315080817660354,-0.60896090319230611,-0.23177503776772626,0.28765437045940195,1.3282798139497354,0.20653868794530855,-1.9311066657497087,-0.88902592979654305,-0.80129880103256212,-0.037530745409071753,0.085262910452219648,-1.8210015748311255,0.091419692937719316,0.70452925964084978,-0.36705246726726964,-0.73108690524442033,1.1639409496423871,-1.7965896068738452,0.91439973221292281,0.026808434475781823,1.5890535044894269,1.5120466172655083,0.69939322346790844,0.99172642554541635,-0.6372083404335982,-1.1501224759739435,0.57009623246553165,-0.58853110826987731,-0.98517399349385482,0.72511107524417329,-0.60236832093602433,1.3991423332763238,-0.47391864082473478,-0.81450301235317724,1.2718644970329354,-2.2917393469715921,-2.0063332665707563,-1.0223455787313465,-0.1876595372919331,0.70981256401356263,0.18859796970587336,1.442201323427279,-1.1752481930743319,-1.3724190312166238,-1.2006999326745695,-0.6941662272592819,-0.47402164044360651,-0.019760975227122082,0.37774599175119533,0.47687072380777484,0.34197943705089656,-0.88522441680172748,0.39902063040144015,-0.47235808002351753,-0.59744453930559505,0.034824436734456066,0.46117493495268674,0.39606939947916425,-0.36986431620623306,-0.27641347647133641,-0.00058648763211227443,-0.69813775792654276,0.3398159622466202,-0.46840011601110881,-0.077259949407386369,0.59252942818028931,0.083346959061629783,0.74644335697723663,-0.76633472210655362,1.2875834270787749,-0.71170186747186037,-0.46718643399048254,-1.040585522807987,-0.12552575763523746,-0.956704165966616,-1.1392757490926686,-0.7921658594209845,2.2781946203020587,0.66877101846488429,0.047381925282836398,0.59279254159587658,-0.70242661000373519,-0.014637632252000573,1.779787499425576,-0.45455556134200842,0.76973273414992704,0.087639667594438433,1.2023104503777182,0.66087181794358896,-0.48740413126461107,-0.50320926198613436,-0.72793514538824888,-1.0927586932667464,-1.4352533238972718,0.1826984023488149,-0.013765403546446005,1.1369929737375526,-0.22742286904904935,1.5816151204652735,1.4962933697619363,-0.05282718628584563,0.8394944237027383,-0.17029995396276912,0.36848449124282018,-0.98858203546876044,-0.11323208004190188,-0.083656889782189395,-0.82679118844165345,1.1167501686210293,-1.0343272323900872,-0.12739462974232768,0.82680876845699636,0.65164002015406497,1.343334145112892,0.49744929192844739,1.2297607039240246,1.0338994665153056,0.88257055972298881,-0.6311847961459498,-1.0580013862568101,0.19533552286001798,-0.60527488533952434,0.19921396438821032,0.63706118311745352,-0.32756264528181539,1.7728597666874275,-0.63352145657987458,0.64204467044678026,2.8022308636259727,-0.32478755966530787,0.56233764677944564,1.2944989813825336,1.1304860538744221,0.85643990153472438,0.38245833713487781,1.5089978249064466,0.53708241909714372,0.32744484687181363,0.34504744700408735,0.58984387794382431,0.39838691405913323,-0.75875135712723307,0.33619953013095433,-0.43733449260469887,-0.11914017664679964,-0.29807849720010543,0.58049719718652171,-0.22912969797144001,0.18938584522560378,-0.028259279601241465,-0.22626821758020296,-0.95416089790333014,0.22369178974057982,-0.60035172691428518,-0.38428379124169415,-0.59361077563816733,0.18458158749777601,0.35562625828428229,0.91570291252587144,0.6356094881711476,-0.40410001478124613,1.8002320823573563,0.0001626515952240784,0.087531138162424804,-1.2842301592182592,1.6977918060963064,0.095743499648860322,0.043309176723555942,-0.98371181995354329,-0.71173647374650983,0.14050645405762924,-0.59164398861093581,0.24981617130588502,-1.4759731191120093,0.5277723523098542,0.72402496054111265,0.018182051844535394,-0.38027103020883751,0.32734007484750299,1.4506692767666909,-0.45728899665124356,0.044847255130525308,0.0973033356517959,-1.8484523416595449,-1.2945292791045193,0.56697412380854817,-0.25770990143705486,0.47906373946843123,0.61401311872451048,0.6500916342003239,0.74933924951556607,0.97000933290894531,0.52597340506497303,0.25361626958998695,-0.53162955797697187,0.31697560374644024,-0.45718458499859943,0.012086962664342225,-0.57034348696400339,-0.50700871755090104,-0.011680434005045381,0.13147103505428226,1.7051989815162387,0.032793962933257585,1.8545404258614844,0.089869517426518913,-0.92195598266742085,-1.6106197405077332,-1.2582085893080746,-0.31886652867394577,-0.67973755330674346,-0.82640517713454964,0.5750643764777672,1.7702079763287051,-2.0139066615814252,-0.11078238042353562,-1.243689419851606,-1.2042129254312421,0.58476903915224265,2.3604712774805723,-0.97749209813862725,-0.89426677952894851,-2.0340678900362348,-0.42926448549206025,0.95014338842072421,-0.41120834547648238,-0.29969824130588596,0.25214919314132828,2.3940514398510579,0.59316670069467647,-0.77412239717350684,-0.76856220444239631,-1.2983003604476948,0.38745051245804102,-0.15522489397650091,-1.1275635755285827,1.0097711391293458,3.9734451735826197,0.23284404448993432,1.4591088393637723,-0.87101347779262928,-0.37945864287727177,-0.0083498564228083709,-0.92943181350915816,-0.23450137556057019,-0.68634993272491984,0.37153057073508677,-0.15729746781401571,0.76278166249319757,0.40354826385533665,-1.5991907978225808,0.26028111895751632,0.30228629699463344,0.2040561193926709,-0.88637231619427637,-2.114642392751513,-0.51332579608805529,-0.16700220035328228,0.52776732469829435,1.6807381247945772,0.80808194952307577,1.208540873247806,-0.36963203863884581,0.55707840358201643,1.4798760492985537,-1.7172339761756632,0.07962823959432036,-0.32990152975277987,-0.22635776304259997,-0.11867846092718648,-1.1519264865795202,-0.35486288278647782,-0.54796347035313298,0.20356133557371664,-0.73312502168376747,-0.0152510918359983,0.59095894655035852,-1.0348707268728032,0.18121739876226917,0.26499631519656941,-1.3171748955524427,-0.43560731184984763,-0.4249339839236837,-0.13733681204762027,-1.0673324860042563,1.1496692782453535,0.75752784165582776,0.24753406955168727,-1.2840308535410565,1.0612095632419314,-0.18624747839687494,0.38415042605326583,0.45694979598034619,0.16641961866668462,-0.078821086012402938,-2.0344410714629579,1.6412871962152769,-0.61955364830721193,-0.17177116289616617,-2.7373755753387568,1.6310928523473598,0.027357454745413567,-0.73068542505883494,0.51975752187452462,1.2351933249609255,1.1436056017678899,-0.50486160883204911,0.62007406423071199,-1.5109203231947983,-1.4302891597554879,0.40497243606633981,1.2106106637372493,0.82158065017791448,-1.8396328984566033,-0.67097940919209786,0.087621874374450917,0.95898041595187622,-0.091195067322867834,-0.18088458315416589,-0.039379374986071185,0.79228406523776007,-1.5833659080802271,0.56853287818557341,1.2137580538579777,-0.38061771272041139,0.38297882345567585,0.99059466010924635,-0.59134378766261586,1.2408137591443258,-0.98828610595149902,0.67488037513045041,0.069588712030887748,0.26146468294062392,-0.28518618815113167,0.10490600733368785,-1.1300956621863036,-0.22926252911972872,1.2050860144022248,1.2424083600892142,0.40789687696376681,1.6412130298536745,0.69342677544358855,-0.94811910044222225,-0.97174617927683959,-1.3165791895952839,-1.5215539038273627,-0.40695669376001248,0.88073456762055546,0.53802245275779303,-1.2024511891824168,-1.1927984168017562,-1.1173398293683205,-0.12010445078579225,0.48315122052916737,-0.52260153085110073,1.8134942028265804,2.158198722498919,-0.53923973822829097,0.1582081133779521,-1.0345678386915054,0.56752636157082104,1.8583942447064703,-0.97119848851374202,0.14025408525533195,0.095451875676162257,-2.0483125872173895,-0.95404192861735349,0.10326165736803369,-1.1102300040433499,0.21738268057399851,-2.06937932957642,-0.63067940246672305,-0.76629339327775137,0.73780871850102547,-0.066141676591765466,0.5055444945808325,-0.51106847346630835,0.14451139998979948,-0.098166888761303611,-2.3894620504444197,-0.49825042916891032,-0.32412649619606626,-1.2294060729528797,-1.3289280658792104,0.44744273529814704,1.0268520618172376,-0.69432299102974604,0.54146386113881384,0.072631170963647337,-1.0773298829724631,-1.052245513196981,-1.1454457329410348,0.70524601709903045,-0.30382389472146876,-1.3125315921310512,0.64035493646242503,-0.44363318489665204,0.68464209491055283,-0.226830508942308,-1.6654413402016539,0.28919600319167149,-0.20743465032190805,-0.15361035174824994,0.55628018423508185,-0.18946915308578038,-0.90371294312208872,1.0628361154577175,-1.0871701223535875,0.42167857727978431,2.3808991535064976,0.3393839650508404,-0.50374938106641753,-0.7882599397916461,0.082731418815714636,0.66119511415192689,0.11177617408334298,0.85370150408185919,-0.44846564014310097,0.0084392333090849616,0.24894014220846952,-0.92021316714584389,-1.5796587143914766,-0.57607330445263871,-0.88131115684510875,-0.12015256807015616,0.24783230646859869,-0.79035222334655142,1.3815250751719981,0.079227886832482552,-0.85021042222786491,-1.7846027389809682,-0.13803312521102437,0.18260056965236979,0.29658282599148139,0.25308537456178815,1.2351398126448161,-0.25554160179221003,-0.52851385566757436,0.38903568866848437,-0.21900305499243305,1.4288801864205181,1.3908951445126598,0.49408080895891748,1.1259741078280945,-0.19479009463931082,1.2014184230736227,-0.52866142588561627,0.38467998820957267,-0.04143114595105974,1.9429931946883057,-0.082610983067378074,-1.0211902172239213,0.79203070024642408,1.2253374186665884,0.90938955721249704,-1.0408047984574174,0.091793390281843468,0.43339235759747813,0.010437290617215366,1.6295325637620093,0.79130823866372291,-0.88501309501478964,-1.8649933180198632,1.8242800977957669,0.10329142282755355,-1.3109242218986719,1.6181459340074955,-0.37761777836682225,1.9870535480283384,-0.056555575152906337,0.82258423865812413,0.63071700088243154,1.2059440599644402,-0.47677317557117865,-0.98293994996969836,0.30911636147878535,-0.20819350974330789,-0.74175892427771528,-0.50577111591108936,0.17601835465491866,-0.5376202223088532,-0.11547557977777272,0.3855997736433962,1.6933355016311515,-0.71402967337875523,1.0129422399339969,0.332418676996386,0.39322285961450559,0.47336453846349313,0.93650750494590462,-0.08635088671150247,-0.89371845734218303,0.13470376559949387,0.63265860166661192,-0.14157124997596277,1.2755331266396459,-1.1617971861938396,0.32625314551989704,-1.0863895848037171,0.3628539336748734,0.16484444028846251,0.0033897313338423388,-0.94471313311819771,0.87277678294829719,0.73787628177715814,0.1466688447409874,-1.4515742653099875,-1.1135093966593741,-0.76959281492587372,1.0964595804391906,-0.4196784438340378,-0.20190773236214588,-1.6854895259961749,-0.71909244548941209,1.0244106707068261,-0.82206283621263798,-1.2740222381431867,1.0943368561919713,0.5049491053527374,-0.32644101205125559,-2.5042175830313864,0.78761364009456736,0.21560612689613723,-1.3475903812272683,-0.45625255594807146,0.50031185196268346,2.0176525264874714,-0.66773227270590829,-0.3257130576582592,-1.1563845592245807,0.66434026040693062,-0.16504518315168382,-1.063337112683445,0.62933814493780627,-0.56311013462715342,-0.23486106764995562,0.071367138994152812,0.012859143619195891,1.0225146233316342,-0.28352593894128375,-1.5823909092053714,-0.17461338828253764,0.018910396591141753,0.28223969619067996,-1.2886940223344139,0.64223558667897807,0.32528649136163784,0.24544715697571975,0.50960512220365228,-0.14484069576655861,-2.5163143123908283,0.60122474380983959,0.20784300856648261,-0.31374071992187436,0.052311982879167544,-0.5929724371494014,-0.33433368531854984,-0.23841261141040718,-1.1454230483906742,-0.32033177363900589,-0.35077717051724611,-1.0469676069038782,0.28131945490234095,-0.69281672655492677,1.9071047034976418,-0.47297362762226336,2.2050361695785217,-0.095947100822959458,-0.86608634557280095,0.76863872783777176,-0.22650178398435836,1.4122411898836058,-1.5744281524191619,1.2292231805595826,1.7192566606944908,-1.9207976636769704,-0.1210388812580879,-0.57826463169221298,-1.0545313336506497,2.1592101227724476,1.4092018578393841,0.89261773303476977,0.82290597643158547,-0.04373984585418686,-0.91128019678041128,0.023765131938290482,0.48772195551815944,-0.52886347518665133,3.3348661847592482,1.404107011788591,-0.54231611246590694,-0.43951402718105032,-1.1392715823049928,0.16279677066353651,-1.5126379574807247,0.20208704926179374,-0.57330049299725117,-0.48421241423909955,-1.745160682937821,1.2565945952239648,0.14995949863882732,0.018003684311445854,-0.36255308466845382,0.22855400475089616,-0.071411925368060139,0.48664737297891109,1.8577477465848766,0.56226335254933135,-0.46204236171023139,-0.65428671217393841,-0.021940470047501045,0.83605670871813043,-0.78726742051735066,-0.54795032707053548,-1.311846347353268,0.66552634040667713,0.78645917883871386,0.82116583831893142,1.8392193269069819,-2.3709723393508932,-0.049152435026655138,0.81284112810501741,0.65237386019628407,0.77024051767728863,-1.1217860360156049,-0.65694559889655924,-0.89090787985248954,-0.83197481336874757,-1.3214748392555153,-1.7378019257970048,1.3449486184123227,1.5524169698865806,0.085308199385951439,0.50869910813832098,1.3717514382984592,0.046446454069672807,0.66204781876483854,-1.8949234922931191,0.84588966479945882,1.2572446925715195,1.4728820101816447,-0.27142782287553996,0.50313979067574521,-1.0272130376747513,0.15470656458945389,-1.0129727409601146,0.020024369815413397,1.8803365415382358,-0.86045737807442857,-1.226493400692577,-0.36596041406349594,-0.83143051983493299,1.0861755022300721,0.56883104414057395,1.9846372160422689,1.1088705792395981,-0.66784074107017355,-0.90576649484426208,1.4665938377225514,-0.52628312676769984,-0.79234391017812089,-0.02594151968388865,0.10399223189426393,-1.9004318463157159,0.5552384673464269,0.68195088841124341,0.10466755800941061,0.52260467889748119,-0.34531077239801589,0.5359284766988518,-0.72985881107979367,0.42815220927081188,0.10810541412181818,1.691508977202316,0.39147145492438762,1.3280995193857104,0.10378808766725788,0.051029479298364475,-0.5364143799186043,1.8689188839068833,-0.9130646026213447,2.0034386587078084,1.1195069264719637,2.418633126097768,0.055782926655770039,1.4084494362983129,-1.4372906927662819,-0.09367707527153693,-1.2335270722418834,0.75739641513019862,-0.18339088704863998,-0.55771458433824883,1.3070312954462611,-0.95730653680456357,0.21907632720988643,0.88864613964716999,-0.36803474588068008,-0.82484789050406071,0.86025469680186228,0.40894986316871423,0.069450879049127195,0.69420886772819634,1.3916401436375945,0.0072028792289988205,0.04736048127417785,0.35458007791291402,0.6717480081767252,0.29266126891451172,0.2771115981070727,-0.3781313312796189,0.216684427113506,0.61454641438112179,-1.1893300933981432,-1.3301644146051717,-1.7948539480363035,0.86868363017097083,-0.84343669094791363,0.66457040284918001,-0.31929259683858652,2.6767221576876636,0.13223076200829556,0.96305237361727203,-0.10867825955424862,-0.0036663344611956657,1.0306245201211235,-0.60930142351634864,0.87279333633398559,-0.20833997672285243,-0.46179000749849491,1.3298370775771737,0.093109311434051642,-1.0581016148302469,-0.014688657959515626,0.72376428441263463,-0.79681836027516051,-0.098346162702516518,1.9178974136367282,0.36794866101519935,0.82960068357845995,-0.66144748433864464,0.44184122958611532,-0.543403279818095,-2.2721016893694816,0.72245376138255957,0.1288810685828698,1.0221085272770329,0.0070252558090557939,0.88529609580453661,0.43510184288650289,0.27223747698742717,-1.2558850807672295,-0.25541695871211928,0.92899469596975737,-0.25182086761722178,-0.29404883666259546,-2.0471624083461251,0.53590483152337731,-0.79788072389109166,-0.33926265016210166,0.18745831147435196,-0.01084297701528363,0.24988468531157357,0.27206038139063371,1.3933462661678935,-0.19860894003182278,-0.43803132494966673,-1.4606303116574555,-0.79303537312010086,-1.1397030803137871,-0.73323623202550969,-0.65301593219543663,-0.10078663582219273,-0.14344552946747866,-0.9348211819030261,0.51254475116039167,-1.7254025529418304,-1.6895874192579066,-0.28908201473790768,-1.4814643650897343,-0.37710590026623286,-0.23677878659145948,0.92217309395949099,0.72937024844429477,1.4256173942495263,0.59693690268564159,0.77922541893460373,1.6816205432635831,1.6080600859291065,1.7110117974544368,-0.74162817529680558,-0.051986094163170231,-0.016362722234704793,0.92025460896497235,-1.0585151791434757,0.46429111785261507,-0.22987422898553692,1.0657214549488596,0.69107439271871718,0.25225270625158031,-2.0950535334125049,0.62867147158457548,-0.58742661711045141,1.3785665845872184,-2.1975591085355357,0.89572445762927533,-1.6895416898721003,0.38776345628653447,-0.39127981220937813,0.5820127564044838,1.1574434155693287,0.80502118751360796,-1.1177233873948051,1.3234537251149594,0.44642830144596068,-2.039972477733123,-0.76004160578817304,1.511793656923313,-0.98009867226340264,-0.51535054556300885,0.72188525690045147,-1.9126506805452297,-1.3123391156647708,2.3283034874170694,-0.55568125065002738,0.37981864219435124,-0.25357259604319943,-0.1450763876444949,0.088984157174844689,0.4544310309437144,0.21768727551074407,0.10023870165605328,-0.30003205382165887,-0.095615147523129621,0.39183433912797316,0.60982659366921621,0.32424756189130732,-0.82176508985267294,0.31423789899228799,-0.36155951202858305,-0.30490027791926738,-0.031981729583675629,0.25300330290269807,1.1137897130489478,-1.4531383554363551,-0.35112481401342344,-0.17174904395364829,-0.61977768938749012,0.19616102439755426,-1.2703444140090678,-2.1725535232109254,-0.99608456272358759,1.0342861431528041,0.9273602497030824,1.8438920568548156,-0.069319507505313085,-1.7055350281084014,-1.5648051478134264,1.3472005549880808,0.98824982107817017,0.53876984225330549,0.25799653190897504,-1.2346685537882316,0.01733650433165981,1.4138401583584772,-1.058367390096405,-1.3749133967666169,1.50217918078219,1.0932352878391733,-0.14855739321683381,-0.83281522520130746,0.074363906243242142,0.31430439538131527,-0.66076824484124697,0.2976423331341132,0.35388280838823122,0.84788129818770053,-1.6489862785006462,0.29304092499058826,-0.20297207876511325,0.4002772042875668,0.67287568890113403,0.50092676410115222,-0.34398415356405609,1.0937003319494849,-0.69953904450315896,0.455763580389353,0.38963734561053504,0.83392772756361344,0.1282521175289017,0.69567560730751765,1.2739644520950704,0.61359621078677407,0.2536872892429628,0.15819526372260395,0.580266981843092,-1.7757496322721762,-0.66912496713872904,-0.22676616330577007,-0.41280215064676923,0.97725098572682345,-0.76121896964601021,-0.33125577478016827,-0.21878836423035533,-1.0230269908819334,-0.28121872422058086,0.72710493914547925,-0.27715626719978809,1.4709635394389839,1.9418712204415798,-1.598392422389675,0.87983581724923265,0.56200490994034791,0.81049268720166845,-0.59173699801993951,1.6038798350411974,-0.53502637536690056,-0.30639858925045538,-0.37396351921711934,0.075791681668928176,-0.094045551368075964,-0.091300471590968033,-0.10392545994941858,2.428254391804336,1.3933243142811471,-1.8982491383792122,-1.1054944119893853,-1.0182469222032369,0.24454946181233422,-1.4512251862244225,1.1289933147172442,-0.70837750576148917,0.8384273165678181,0.32817646849533566,0.69837735595775097,-0.88277227583026252,2.2731714436230193,0.24963833418643394,1.3019604850382271,-1.1461741111278216,0.017731986628301642,0.51221607481506126,0.21556141404733084,1.3546925762481998,0.036311038933851771,-0.6556829326792899,1.7788909598252773,1.8892634419843695,0.65679116246699754,-3.1899761835403786,0.0006618268828501682,-0.22505627253774205,0.21065514625946544,-0.49071381637076233,0.60860047530065808,-0.41647938427206926,-0.11205957402941484,-0.35931918981974004,0.48389335193201416,0.32312626550047613,-2.3058127298499911,-0.077026037458034408,0.29541901338914767,-1.9329465241700814,-0.88689287734750488,-0.14408251043590473,-0.092192171052850269,-0.92824476484467289,0.7806727984607118,0.40384187135268035,-1.2936549790637493,-0.45424230984829855,1.2045696169331097,-1.1314492708476154,-0.040101124207286856,-1.7324681451755368,-0.37342142095844644,-2.1347424963021751,1.7048425507527032,0.23948362035436022,-0.081604667932251351,1.8090833270235747,-0.1290573620045595,-2.1224410422999034,-0.19704756192551046,0.6605628381653682,-0.55219222764045961,-1.0443293974909005,-2.0337428396199106,0.21661497843435981,0.42244690629642895,-0.28651780716967568,-0.76855826055094623,-0.31111838502622091,0.061820657383383222,1.2846412054971612,0.09009303512837398,-0.96149241413138475,0.17116124716862258,-0.15014010319844778,0.58364719318933789,0.67540506348084284,-1.1669302064025315,-0.11349700544272685,1.2790746970159255,0.29473001854392233,0.43495211397061589,-0.43387995096455562,-1.6518756004205142,-0.96165509884419453,0.24426743848673457,-1.3988077814236328,0.65447217695655169,0.86671995274290969,0.8138495152964359,-0.474869773762775,0.88688428948564069,-0.047190981728047206,0.067405548329020001,1.1490342340268676,0.6993303037576476,0.24593757549122414,0.025592928910323578,-0.0078250373427967302,-0.56529149810143065,1.0726698317223307,0.35656205346831232,0.79572224208125719,0.85080538565046593,-0.10742220302614056,0.59530191835416157,-0.28086788787091316,-0.39722509759141994,-0.41483973830189286,0.88005535235717247,-0.093290809623864185,0.76606359681006142,0.2351216734003943,1.9274783592611555,-1.0779905427510859,0.62225709771736737,1.1714587034760515,0.55630300989125969,0.29240203521930458,1.2525852664412844,-0.36413302246271367,0.3161267455496517,0.91618239223381537,0.54602266784294828,0.15246532210819691,0.40051004445618499,0.17494228951410726,0.71217062269774989,-1.2358380969207383,-1.1752489354405307,-0.41097041004311835,1.2742901827732536,0.12127127342933601,0.082560111941777134,1.2049116844107841,0.1662291425968874,-0.63895411711519745,-1.2879504538054107,-1.7601457163093166,0.14322926860796897,0.16042353438539406,-1.5054284076955926,0.5104839045205205,0.58603022157140439,-0.90031991710437953,0.74228349282714889,-0.07832023839327186,1.0359783324929881,0.71420270361697824,0.21968245378031245,-0.024811520716256412,-0.80886602215758374,1.6100581894072978,1.0720805025700701,-0.82542606142739716,-0.21847039539678534,-0.91569483770718396,-0.032990773451423719,-0.16144498890068473,1.3900581385471222,0.65030654798661258,-0.70169909178427003,-0.10165939684346872,1.0253741452146452,-0.21547429770699511,-0.11239638570751551,1.4195157759350916,1.4659770747051322,0.017552094513426403,-0.67654026959032743,-0.49691856938365603,0.78963371571111041,-1.92586637105595,-2.7529438584827841,-0.24612366194514493,1.9215336677523043,-1.2603511177764957,0.51441969400685983,-1.1238817855502337,-0.57290326952849224,0.40919998655955953,0.48283342514691746,0.36238387274667078,1.1512245209350693,0.21909258675865695,1.2812521803501544,0.28110320926297189,1.2379266335142365,0.20890622584578553,-0.95707291405857786,-1.2895599591056279,-0.25320279513886723,-0.081106933724409427,-0.3749501259358774,0.11079390444853002,0.17415091915450517,0.081423230134371707,0.038752616493486318,-0.80931466307958311,1.6951689376642518,0.94862635042387999,-1.4822477792253104,-1.4692355135382655,0.57180177257594234,1.1689693910595094,-1.047584595513374,-0.45056474009213782,-0.0074684204539936282,0.49314588420305394,0.2288742532954274,0.34276086380095161,0.69887723003856173,-1.3913994142559876,-2.1165556831955579,0.7869958309911439,-0.0019945481444262566,2.1031645255367186,-0.29489339880246962,-0.98732000444897206,-1.1890614359716594,-1.2733861016454866,-0.61115466833974108,-0.19146179269312411,0.6164632030873487,-1.0923302957263177,-0.3137869245275805,2.2544122315860968,2.1590183274631789,-0.043168474730411147,1.2175419800463676,0.34484159867715758,1.0770475927672278,2.1140679346761964,-0.19243502432953666,-0.69322321373032325,-0.032343604941917459,0.34821368585892587,-1.1614164631773904,1.0395161182467498,1.9972794631141602,0.66743051505037687,0.66876558677659825,-0.086850872591349146,0.39543332411327092,1.4687155194409793,1.0132136382945067,-0.012531680336626286,-0.38157930499920523,0.12106201603822431,0.11465382297825705,0.65131984983502234,-1.2843932244708542,1.4250687399649571,0.33625579486246793,0.68126048280681673,0.53109803398598232,-0.89976695461761191,-0.00060582843552270795,0.2859674555527314,-0.17397500289499884,-0.95165256712670487,1.3877543095016449,0.48064171050041749,1.0785194826261109,0.26146379917807577,1.2031929333497098,-1.1441989211223631,-0.85779280883849651,1.3315095005115758,-2.4815601124662825,1.8765068700638248,-1.2743303225574329,0.051247142489455083,-0.048558224624618181,1.1877292048207899,0.9047032306415691,-0.64188362871278271,0.4236923799408881,-1.2575634528602539,-1.3417757975117128,1.5117987922551457,-0.75637631298299957,1.5656736754403286,-0.043028219717638948,0.88739634044591209,-0.37335596809383143,0.88952972409951392,-0.1488094183502969,-1.161109435099497,-0.13297832625020703,-1.5559747952734517,0.84147337727576188,1.5301818763252955,-0.71452409450690546,-0.37344055907807061,1.910119920491236,-1.0847406504879833,0.50004822638392543,0.72571056251150856,0.31626437740949248,0.50911841018115156,-0.9881726461158683,-0.67439715712116888,1.6739630924163111,0.081277801834478011,-0.23956579462515779,0.51947600611410871,-0.27890770464151227,0.92876051444531982,0.053539499159245399,-0.25618514760576139,0.46343771102075626,0.58095498882424068,-0.36396872892782323,-0.44606987457864189,-0.74935987157048001,1.0713072780681316,0.63692052876649252,-1.9150857189219359,0.93448423965116978,1.552703270763915,0.93234642982303384,1.3601752907019766,-0.58443215939062443,1.4290617311832206,-0.33964667426636591,0.2524048616487411,1.8188874288086636,-0.19057731834343863,1.1154216984219232,0.17780662178638648,1.2688680352979074,-0.83257446260688306,1.3995958259160497,-1.1653336952593079,1.8983439978504189,0.26771263596940403,-0.63463374983016752,-0.24841910323144015,-0.55929365263205133,0.57507592568759858,-0.42754580230324729,0.30437581843941602,1.2886552382985683,-0.65477244492505482,-1.1737824937231902,0.24511173906573253,-0.024321275597056206,-0.059463781012089809,-0.62679713655565417,-0.65856195509038096,0.30720142076276918,1.6253083455452748,0.34214611692281255,0.33055895961135995,-2.1068673910685751,-1.771601486020042,1.1193550151453491,0.59490373999875268,-0.84355638686315682,-1.0355054516647428,1.1494093405404004,0.0022191761398698147,0.80441434402771061,1.0049430445492595,1.696017060440224,-0.11191762776017629,1.8861927251965027,0.37527582081540956,-0.13555880592882746,0.12980774953096275,0.80276276572369409,1.1979941986432494,0.98128908353180311,0.84604374666779714,0.12616206736551966,-0.97843660056051962,0.91911216567279197,-1.0425724749424852,0.94862812123832241,0.34089612353471516,0.4088168353131108,1.17828242006748,0.71015909128986598,-0.07603234975215524,-0.67280832065064744,-0.78759457572591696,1.3519856119531759,1.8288800898035142,1.4175288643674997,0.58989504913045543,-1.6605621334440492,0.47529702495364695,-1.5771646580508174,-0.26504764766833339,0.21653637087484853,-0.52181079568613509,0.0031166610068121287,-0.81915022819477534,-0.5657003326795258,-0.13620538907089569,-0.83079891086360846,1.6880914002236014,-0.94032579125572835,-0.076981699895487907,0.63094704118298683,0.31125272597274023,-0.76424185544146817,1.2027174712811755,0.045453032094677971,-1.2605905557770976,0.36292132408630923,0.49858004430107244,-0.69192181472469694,0.27495194208534374,1.1915603090649018,-1.7762232639881712,-0.72064869941078635,0.24057378259379292,-1.2036473183055958,1.2425670535033817,-0.9926985676200929,0.86376333822326823,-0.26859823564651752,1.7367195044231463,0.38897923735546897,-2.0724171561790312,0.48054406363387242,0.05020102419683263,-2.8529390843637739,0.71114975208496922,-2.1981854700117176,0.57623450097166673,0.41432104786392598,-1.5000106135960798,-0.72826688536271733,2.9673937159216677,-1.6765660143416179,0.24878783203105984,0.40518675883136757,-1.0499184410855875,-1.2064683782972268,1.6161457590544563,-2.213552868286385,0.79071161047912775,0.21171466164514954,0.7204605259043062,-1.6512326674892261,1.738144863161845,-2.0613649021339207,-0.5988591891686641,-1.8054782243063936,0.49281401877612147,-1.3073797553372712,-0.39864491034167782,-0.078150129360094356,-0.84051769324326442,1.3703802853578013,-0.028019085553012864,-0.43318281574107609,1.5219772190678624,0.49589039906862742,0.86502348866532708,1.0738025116555128,0.080157263584300031,-0.56636747764562223,0.88796526472430137,-1.1632181759063389,0.71842169536123957,-0.17218795900026593,-1.5816480661966896,-0.6484313616065992,-0.0015366159887203173,0.17492585288654905,1.8116627659692601,-0.84287780928542311,-0.086079787365110627,1.6392051740923133,-0.13454455913247573,-0.54287030348266785,-1.0233894601469047,-0.45514162008664855,0.41468887845542757,-0.39864963685345611,0.11938516298227346,0.11500492193276339,-1.0318226186964434,2.0655610787084822,1.6830218121292333,-1.5277157148176204,-1.0499137766224629,0.058315727742176852,1.294718877787657,0.2802293027601796,-0.55499880479700736,-0.47723352997089957,1.5342758883134693,-0.1005728248193432,-0.50828396953186228,0.14723981623370616,2.3448332853995848,1.2841954585250672,-0.56867488351366435,-1.4914482539399783,-1.0695390461832679,0.63923712230377461,-1.3030795645277271,-2.0251614265028306,-0.040202961544011026,0.38532951462599352,0.6695017121001805,-0.66895707207759447,-0.57438414981082353,-0.86425161145360474,-1.4506927987426201,0.36382557850455161,0.62603144596330396,0.82229626338615303,0.42246680039376738,1.3490777097925331,0.22967404555853269,-0.62325218564601415,0.67335974886058381,0.97684814198194436,1.3404370498776021,-1.3453547990863466,-0.73741159238281684,0.5289674207490177,-1.215677331743156,-1.2829333585660516,1.7985215710294311,1.3333586832680413,-1.6536034403423185,0.67505941764045507,-0.25732006332571239,-0.80077200162054829,-0.27017832684379428,1.0597700492919462,-2.2604582503763324,0.039129198277614081,-1.0109238841191828,0.039716917296913963,-0.45243456964318884,-0.20478679359503779,0.52215825210864153,1.9676614209348127,0.28120201042909582,0.34921942148372315,-0.2681519618434649,-0.6095785828565109,-2.083291988563182,1.2705957398595302,0.93016561181497237,-0.85549509801837709,0.26735426280706598,-0.48470698234399401,0.64404970669451977,2.1944116333584041,0.41476100156254675,-1.6297777704338223,0.49560657721691681,1.2088702668583891,1.4424211586063367,-0.64067219619249904,-0.65208046657411378,0.69099395574963984,-0.28276607335477338,0.26776527561088292,-0.85507131869245134,-0.44557202322785328,1.0549691840698405,0.53635232031326852,0.64602928986838914,0.61834360518882614,0.55700085122590448,-0.85733964581825428,0.76843622451605231,1.3136795148073253,-0.9213537512150699,-0.05987719381874107,-1.1891093643244774,0.51905027008725524,0.15786184543999979,-0.42800740633794349,-0.24817574130892908,1.0440737152317647,-0.33460177777389755,-0.52371574622555028,1.8753287732826371,-0.67375598862595243,0.35591774936732712,1.5397140347388829,0.062305284095192454,-0.9375825082171495,-1.1684559163672785,-1.7472303680754546,-0.84330345872368773,0.01281052769730133,2.9944486815050784,-0.25391401549582637,0.017131669296995916,0.55042911269656725,0.84224332888556841,-0.48927442507925145,-0.77595300282878255,-1.431959280676832,-0.50705773491641071,0.51677925233935318,0.076180883259333976,-3.2577328665664069,1.7537781445237062,0.51943417540329118,-0.80668357901263865,0.89439275878386071,-1.1050008293748879,1.8103585457060161,-0.37855539267482885,-0.97981734278109411,0.75274214185241395,1.7516439053670414,-1.3691673568491487,1.1053814521085674,0.13519589582487224,-1.5062545281757611,0.44350414094770058,-0.77138438664024067,-1.903079608872817,-0.044605414159646257,-0.86135377927571077,-1.3650926273967778,0.076807054762653218,0.73208586885955773,-0.72637202441939652,0.48412662059590611,0.16745223846089499,-0.25908450730879851,-1.7066823893341552,-0.55052745211935428,-0.24623525879231606,-1.6466631378207124,0.64006430657038971,0.54121847344337159,-1.8366326425421959,0.46253887067555172,-0.57171061585432514,-0.22173657643224842,1.3223400482907013,-0.50231380203445275,0.95843794890600031,0.81929643328181678,-1.8160174566151013,-0.30748499057514939,0.54425904046886464,1.245843365388192,0.10134599559057465,-0.5005059501759479,0.61091411029052844,-0.78144103973931245,-0.66341496147688017,-2.1911836099638218,-0.27439226945833278,-1.3516463082014862,0.9265284267798326,0.6208327099044717,-1.5743959786791477,-0.11964787612122105,1.1558031381035934,0.41639036490123549,0.013449150779915089,-0.59716342966246094,-0.1194003375381916,0.12211433917699843,1.8280748494453771,-0.2906123417303807,-1.6190341663706587,0.6252646458555664,0.21461348513142778,-1.4199686408076637,-2.8841803914877668,-1.5218404379122707,0.24793206190956216,-0.94462779068687786,-0.79643840685503642,1.0926013858938073,-0.37426480399323508,-0.10101271284370932,-0.61268184562056816,-0.59983034684231418,-0.1608028984679257,1.123563396509335,2.4097140788789315,1.5678543618788572,-1.0460355151783156,-0.28812290655975459,-0.34695758407178667,-0.23857436252043185,-1.4126333373061561,-0.59991131807089826,-0.78334927618727812,-1.0526648177403954,0.15513969321867388,-0.80090137843007136,-1.0180038644501879,0.42136499966543073,2.1913951313037776,0.53690121168872951,-0.15589364902103317,0.31387778880613815,-0.58937152070844956,-1.2527573382230153,0.11214299751891521,0.88183724032432231,0.16673691442630004,-0.59710814083418895,-1.0167109356283055,0.11714390372360978,-0.26126460956647091,0.21041723039291618,-0.11977947974186386,0.88130182003490865,-0.41136394816464483,-0.11589099792878976,0.1860584137605322,-0.93332537915137315,-0.073752742940679378,0.56122898030475821,1.6230018078141015,0.77950338773669758,-1.7836051888203783,-0.63935803762244292,1.3896981260259367,1.2994859513165897,1.0316458640414863,0.39327935430065825,-0.45007233226397647,-1.3598925359330287,0.90320030632212867,0.66720243033828486,-0.62029326323425915,-0.86895023764674917,-0.80848623259521979,-0.56705176233975785,0.83376563917081636,1.1739037840342461,-0.98670029260539227,-1.7665524020673111,-0.11676470106314486,-0.77006925943587401,-0.1221561017164909,-2.0446622013434008,-0.15865515614615625,-0.32304925788749267,0.14542097839550802,0.081681621919818911,0.51040226619250284,-0.34952031946937823,1.0653860755887568,0.34743149183859084,0.41584736862319149,-0.54403082572040795,1.1023885718342341,-0.61352051636236138,-0.61948615350508129,-1.3987863949953088,-0.57877632964203241,-1.4912646011490658,1.5586620564365541,-0.38622889370723618,-1.1153962359995993,-2.0909847803044315,0.14679997868340883,0.938657603798141,-1.9257910487146135,0.73649310414552493,0.90705335069252724,2.0193612366475797,2.9568328774920887,-0.33989965451245963,0.080213185654575442,1.7187233878686072,0.4639873244119353,-1.7352521997314674,-0.60302184992587549,-0.049433353072043676,-1.0064062503601081,0.10741964212895247,-0.97299008485370564,-0.49792138394695801,0.068059334709848637,0.01813026178332797,0.55493692933015926,2.188055294222254,0.49444601027479823,0.22281394449775979,0.43866292970335724,0.14579895968670381,2.1189264308714195,1.9358616877524135,1.1517368908108041,-1.4610580796149892,0.1097285155926141,1.1115514150282293,-0.76200659722042208,-0.76511539801011375,-1.135347457368747,0.66029405876747127,-0.9171750788243308,0.35961869371440996,-0.58253947012406804,0.55443334224051888,-0.48946719025897395,-0.23751228019668924,-1.154383140344156,-0.817492089617189,0.26529847711893267,-2.7353375104465427,-1.1129744925178853,0.93462142385056934,0.72393345071530535,1.9377601859348799,-0.62787676729182063,-1.0952266333287763,1.2160727418025263,0.73336410994007217,0.31067657676691912,0.16136695270183965,0.017971406798968644,0.74000455037341595,1.6737987858416647,0.8529549284306468,-0.92684633925214788,-0.96758343799799973,-0.18910344740141491,-0.47027386810013,-0.98067865559628042,0.90078085621211834,-0.19240422557243575,1.2091853520641165,-0.092461771719666755,-1.3794553936673892,-2.0126974178422694,-1.2969011780419719,-0.47606431718605008,0.86668359706290943,0.0044389153851801628,-0.85303412687882407,-0.56920865058929559,-0.25061010212317053,0.77263362256579826,-0.10796175225892597,0.78631534908287304,1.1188705069074318,-1.1524113113038263,-0.38616275186650112,0.97973266495372102,-0.038025558598750855,0.0102009018224083,0.11079982098937741,0.58232594229440415,2.6821421243938155,0.42857911975036389,-1.6566107833923862,-0.79781297719986577,-0.25910577644798471,2.0639350911277909,0.37436555650746917,-0.70399716387051015,-2.3800231874721298,-1.0887112349888362,0.26839313205261545,0.93492116511600698,0.76904574670412107,-0.9642143489309708,1.1817869022847107,-0.81981270959684216,0.03743586686149767,-0.36212359387645188,0.1135374274616919,0.59192817416753007,-1.1358034098564613,0.45225586700467629,-2.4601248100154183,-0.29993835642514033,-0.54162209627457081,1.9763970687087895,-0.70598925820558922,-1.0662927474423056,0.0055909853138676833,0.15805302774162197,0.42217047527616025,2.3159882214883294,0.87837586583140825,-1.7450833800023426,-1.915573748427458,-0.81922031177370835,0.53266736874419252,0.039509057633595981,-1.402047789675634,0.10702381206894755,0.28545215836707077,0.58057139241501599,-0.43433415902937661,2.1624935288652618,0.066258555101354921,-0.39042960824847545,0.01363068319763041,-0.99074426454420284,0.339915264453925,-0.36792636821425778,-0.5489088368721694,-1.0897920992977355,2.1184571477200431,-0.53328996762127967,-1.2711819442941525,-0.021639334188099719,0.61035486405452533,-1.3598641963951588,-0.66563670737990144,0.024603993617721295,-0.59205192891936165,-0.12985999856628699,0.78150499028004006,-1.0955600773364662,-0.62509234369351896,0.0870929178571445,0.655582877333029,-0.52384369199200265,-0.59282898120614158,0.17203305702604876,-1.1431230457679029,0.92246300360294298,0.43159893799198507,0.40144637387298066,0.66740685827535018,-0.81301420829163973,-0.16471931307400625,0.029156964096721336,-0.94673282114388491,2.4371806610441835,-0.16866457965155551,-1.3402194835874421,-0.1161210008977225,-0.42343227436475661
