0.29038295784838281,-1.4652728922206126,-0.3577485170190226,-0.0046193762809308252,-1.0861146580421641,0.67466694725235388,0.89156894735331671,1.0491996866863535,-1.1450045930367052,0.42141982346752799,0.11073643774492602,-0.70752184860602862,-0.10726193050876721,0.70121431857960803,-0.80323718999091953,-0.77813045846074169,0.30069969825500065,1.4348202306416049,0.31622915081265734,0.69171354888363878,-1.1513285863878506,-0.18871124089669694,-1.0381969566251272,0.60390858129883052,1.5084590562480684,0.67039015064815877,-0.63322385689314731,-0.71677289109994402,-0.35167835267307695,-0.08875057186624756,-0.8771990722178562,-0.015454463967395299,0.75652375748287959,-0.095088421218240141,1.1332461717594322,0.34785195797135082,0.17774399340368113,0.040500412466100914,0.53473957927377347,1.3937702497432887,-0.030078240879699691,0.87819939285781012,-0.068522414099637066,0.21811208094985587,0.8710490942012824,-0.19139739295974015,0.46300175870836413,2.7704679968975228,-0.40618760251178238,-0.2828135908425039,-1.085174510642833,0.97250145884386296,1.6577983830475627,-0.8913536633159691,-1.4538296021900134,0.93242870278605283,1.2351030608563938,-1.62994719091542,-0.54462351932406083,-2.2111643413894875,0.44939988130227371,0.78796844614197425,-0.58184915493811196,-0.0066364690651551659,0.59187288233427282,0.43853475627840133,1.0219353916803362,-0.97872899630761268,-0.095858362349676457,1.2575979976653235,1.0845766277238724,-1.536416504358959,-0.72324791257366727,-0.99781514915512992,0.65307522183512834,1.5530869243359613,0.73272394207097424,0.50172628690309529,1.598619419046609,0.93048849962726587,0.20540713906112151,-0.72743530942826362,0.25951653947715836,-1.6503209876502982,0.79265749455593182,-1.315795583626729,-3.1750114700569325,-0.30332782324365665,-0.56900301456625102,0.22033862149997704,-0.082352064825083379,-1.2915433633092812,1.253040915981819,-1.5566725370772072,-0.055251024503356651,-0.93368894262658109,1.0214187671846877,0.80821529927356905,0.12506322114205523,-0.54520199099104971,0.014741915156527646,1.0820048489659921,-1.7526687658713103,1.2273624326860539,-1.3132112659824564,-0.2796267282950749,-0.10886123126771542,-1.0822151788213312,0.0069400776636523841,0.09596680771882396,-0.65086834817199224,-0.063579016214379225,0.085574967074717428,0.77706967118064685,-0.34808878711129437,-0.17615342211908988,0.0307227452848889,-0.054092022799889027,0.9451286075307902,0.91991346237592697,-1.0893195739276256,0.090910816207598166,-1.1448113093697221,1.5488139978419095,0.31799541548748106,0.075971500438103273,-1.0712771364425901,-0.66430550342006112,-1.7081523904199869,-0.36530569322299677,-0.89687820332852641,0.090201242146183941,0.5457785803685975,-1.9010080710119788,-0.94337826332137964,0.51893999961415249,0.4371403557280058,-0.068803467984579272,0.5315183087812182,-1.2339022084125031,-0.25985530298336679,0.093192528164465244,-0.97507336428228386,0.83306369145754999,-0.17133415341504776,1.1897589888650424,0.12960651931746861,1.1331518935234299,-1.9700826647861791,-0.3224095590759683,0.034540697401688997,-0.0023196203058610779,-1.1359684710612898,-0.65711624870453322,0.61764881297580754,0.22340247017923867,1.5066104734942238,-0.012334497957906624,-1.1628605723837206,1.1985178004880737,1.49655786180244,-0.35630914885665782,-1.532130848021799,0.90899645270439267,-1.5897157802491335,0.92765694341000171,-0.025504844272811949,-0.62571179829663037,-0.4348975967159639,-0.41458552503797713,-0.54367307535315434,-0.84229113677260803,-0.22839707085165065,0.14064116065272567,-1.3614028846306727,1.0188536993524306,0.23321504928023956,0.21108817666908455,1.9824670980339916,2.2090543073821629,0.97363203695239975,0.054967876493746778,-0.43077897375244939,0.92849939787883073,-0.64229073734523401,-0.41796488874167326,-0.30996399484928355,-0.28924800604120032,0.35476505996704366,-1.745263991714878,-0.18609943021333755,0.90105989734313519,0.077241897735499582,-0.14823364534919153,3.0689193190549027,0.61430241499743854,0.76787616325778862,-1.5660729123942052,0.12596241390393351,1.5495343053073423,-0.15860971291400361,0.76864702554439979,-0.70236534374842141,0.15763600480883602,1.2116181689642793,-0.057310443998613098,-0.67283761711630141,-0.54249441965462386,1.2787724646036138,0.20339302109837198,-0.4823209053461886,0.10868139571695951,0.063520503514867779,2.1990698723608229,-0.5254269713623988,0.042209225665179449,-1.0702400033335318,-1.3485676348150302,-1.5176060865913543,-0.063127045872473767,-0.41844282936070298,-0.48249114452287639,0.24824801744134642,-0.97301869854333534,-1.721552730349899,1.0355414445232409,-1.227922032781716,-0.71157243936509962,0.65626183048522813,1.6325235207037703,0.28548105256139206,1.5253132653713541,-1.8485986549777407,-1.5390030569501885,-0.86638682620035923,-1.3987644966679755,0.025957619636464209,0.3230537836633447,-1.2109233893872153,-1.6527860916324335,-0.41214281156860072,0.47309244483517421,0.89701205961922248,-0.49407658136076854,-0.44738034789632536,0.76644245413377021,-1.1159376845654556,0.62222386643364247,-1.2700385371793621,-0.062487005242882886,0.68360505796602389,-1.2759301682582354,2.5222931062588207,-0.74700511905341016,0.60098064020907727,-0.64842097272032218,1.5759031089000641,-0.5916779708439337,-0.1758355917738294,0.26621526245771521,-0.3490683792852754,-1.2776247343237495,-2.2416768323378933,-0.57807055707377097,0.14360035121815579,1.3539852099458844,-0.20926973314535072,0.71737851852705337,-1.137669709447372,-0.98058774299347096,-0.12653300012041396,1.3692199463510133,-0.37757731417376944,-1.7030366771371368,-0.55176472557346057,-0.085305621791501987,-1.6156036665694478,0.67921882817014101,0.13894226862646175,0.23351142143666656,-0.75445510186655895,1.6940037482714638,-0.26775038975561094,0.09927525749953818,-0.68252548473440455,-0.39771596344059829,-0.11741334838357856,-1.6559730916174231,-0.36458574283815026,-1.5691121368517551,-0.19048409864388499,0.26578682004399151,0.91993037659066446,0.49853963048246708,1.5039605441608608,-1.4150274745612084,0.097096509317538993,0.12169787453792846,1.6577058919055105,-0.41402996924144964,1.8954740192323452,0.094427951224829013,0.052987793537265224,0.54814288696672531,-0.58246935485181162,-0.0747949518521379,-0.51484253003791214,1.1007348294503554,0.91458416369030271,-0.54185530207236543,0.53188193902957503,-1.7386923785829831,1.2302732876278382,-1.1622652725485423,-1.4015826877316788,-1.3137074448322785,-0.96385228296393466,-0.56418663559297522,0.53682947453330421,1.0505308281553796,-0.3242813805434801,-0.68451165201018593,-0.40239498258945355,-2.1439854986127864,0.56267473604183915,0.60259234965033792,0.97223816674596752,-0.48750846473124965,-0.83972778105941781,-0.17964661027681658,0.011059917823769305,1.0411972904776681,1.2839315861292824,-0.020405883771710667,0.38843195310215511,0.71293643554339436,1.1791906912504289,-1.4313461433242114,-0.79815184157222785,0.53705280425202473,-0.28162257600108342,-0.16961162678441646,0.13556834317938118,0.63941207469095185,-0.44480729154812276,-2.3143000699303848,0.86802371025217995,-0.59450369936953751,0.14572935227552428,-0.84691647794366998,-0.69857921424032576,0.37759016494021219,1.2324583769379212,-0.74738737666255617,-0.52529001273277209,0.82616449338301901,0.31250128275627892,-0.10930912010023479,-0.54555894008780215,-0.54318380557632195,0.27506735013878558,-0.40166917224632781,1.9804311269189292,-1.1480854265449585,0.60180414993325604,1.6254570019091719,-0.61495662015268659,0.3503534466724485,-0.99001100167069567,0.83426742286989464,1.993894219406307,0.53494518990007045,-0.8055211504734765,-1.3186959219433465,-0.61343591611768455,0.41440659736597923,0.61815488611667224,0.60291620953745073,-1.979631577377287,-1.3218692126013887,-0.64471890580364288,0.49263875734957896,-0.86565600325284275,-0.17326109859730013,0.3860452959477868,-0.72397296507804643,-0.7228602820814386,-0.119768742309911,1.9346111698182165,0.11248525379717579,1.5196835724064397,0.20011637164991974,1.2833473522246552,2.1647747013024148,1.3137938038489456,0.86463678563164981,1.9722934383852233,-0.59433298760775755,0.67252027635932088,0.50224438631112334,0.4724014386285566,0.6174897558339224,-1.1511026888632099,-1.1024254642452618,-0.68740840737232223,-0.37176325191222293,-1.3481131724501088,1.7489509478447773,-1.0860940443391844,-1.1260605635896477,-0.035569715411291641,-0.57848066036232082,0.14379082138470714,0.24376171736026625,-1.6374401937961724,0.8863053655624098,-1.3490175151309491,1.2176068047930475,-1.4307946681000234,0.49174485823408937,-0.23058564531233439,-0.1565412917658644,0.011537895972684255,-1.4236074068814986,-0.14368388907480542,-1.0698065312033063,-1.6993403173922585,-0.22890104699671901,-1.1986803038441833,-1.4255918340951497,0.41718468109530249,-1.0853485986460403,-1.1326690239489476,-0.67089387211758222,1.006998455650848,0.59844857932155526,-0.26301160677715862,-0.21214955614221589,1.7323413075505434,-1.3657712614261697,-1.7725223265837691,0.83680040138301892,0.3357209185822313,-2.3836611600174114,-0.54951898426134138,-0.87430980681016413,0.62832134273033136,0.62348859821327085,-0.21219318734483278,-0.029264895344612095,-1.0434207175537749,0.33822902719309578,-1.7129337170429169,0.39841194905336891,-1.6924277358005,0.30374847460082727,0.48409441961234151,0.94438366711757082,-0.16993960989974835,0.16007447862708296,-0.85833563899876708,-1.0721580357017375,-0.77802124040347242,-0.50384326278400504,-0.99069288844821757,0.12461818815245009,-0.49221339465079178,0.31742753615880404,0.93553878638019561,-0.60453283229442312,0.052038700720328922,-0.17375532616190817,2.4770580095473154,1.2625517683764573,1.7986197249043847,-2.03110232330737,1.012217493332433,-1.2111567495002253,0.20942008346200167,-0.26957611835683776,-1.3607547684911421,-0.53225631405968066,2.7335426092484845,0.65875841335839891,0.022219166153629146,0.29424183914909663,-1.0036784583887701,-2.0418909997970913,0.48073716679674366,-0.80023902436806216,-0.89989883337610066,1.1889920478325018,-0.17002658922724959,-1.2730846820673569,-0.73828388747279661,-0.045046390437089551,-1.4211383085161984,-0.056213208379113692,2.0824812409482898,-0.47498331144545602
-0.95181329758097155,-1.0756546596363155,-0.13725794039097478,1.4310455105590874,-0.26018291917038427,0.89080400345737998,-0.47750730403219965,0.83563705534804256,-1.8759438419230385,1.7213729260129929,0.88666518099501723,0.45810198069675928,0.60046707492768869,-2.03787171574406,0.34306916755582517,0.74206155465626034,-0.48417906369792946,1.0241000309492356,-0.39956214677329188,-0.85498485459821194,0.84582735304642209,0.067425923116581507,0.35423108116504615,0.25945145506578082,0.70465621916147403,0.0059308152563721465,-0.22662575660421994,-1.2723398113585158,-0.87718107183262617,-0.16996046615039309,1.7036165434169197,-2.092158256764503,-0.42493020595767367,-1.0548169140202195,-1.4847334368106215,1.7960285783016983,-0.54634586525038831,-0.91288112568847302,-0.72257588045049004,-0.0075514809884137694,2.1056052989195417,-0.27418638398644535,-1.2051218725316351,0.20346784966945031,-1.0721233862213304,1.0912373361462371,0.075271731012926363,0.48973284192920896,0.48013168071083989,0.070646705500479759,-0.77229129043264089,0.014630360170509948,-1.9907405759453445,-1.1897739667662199,-0.57737990385733795,0.67394008032876296,1.0305524329520739,-0.18951624681485157,0.0089367753734747313,-0.8331235188722913,1.1503013309294126,1.5437141175687021,0.94872377009092623,-0.23969102772553796,-0.20891962514333354,0.41198295903587223,0.42787057579726451,-0.74225594741593492,-0.42988135485668155,0.21512312071174736,-0.73284082468661282,-0.99955066794285863,-1.5313556572189739,-0.61501916767275377,-0.035255433661289637,-1.259845483145124,-1.4851476072757495,-1.6187861671136297,1.0023987124080995,-0.81815674364788682,0.59794149088878168,0.51580995212172387,0.54184327446869263,-0.34126069755851018,-1.760096929483089,-1.1741484876860471,1.575508183955652,-0.7447824068110398,-0.11512650052747653,-0.28788239809093719,0.54272033712201584,-0.21258083355650703,-0.3279676880882722,-0.66440586610729735,0.086525234983795649,0.23202621962273212,1.1295892246731527,1.3014189851768632,-1.3138241866013902,-0.94039959632902825,0.57469449539306527,0.30909747166389656,-1.2112140993783027,-0.013837177337339763,-0.9992032403168043,-0.87998488931467944,0.13688526285473041,0.21457054328127087,-1.0635811311158061,-0.81494252907969422,0.85801441905483478,-0.73767115603582423,-1.1917602527098841,0.35640034552337063,-1.2469320898219496,2.2937628309173461,-0.15463499364458436,0.68163174289171979,-1.2355336162724471,-1.3250312741807893,1.6520938728248638,-1.7441375446357781,-0.61798807650692122,1.0764681922233772,-1.2519413131378321,2.1698766718181406,1.5064729440323787,-0.4124477607545286,0.46354776952867527,-0.73285745785751066,-0.87124571593478162,1.1279695472014413,-1.7416512440505167,1.0581305720125065,0.37258216639026764,-1.5659174862053511,-0.68246625039466646,1.0917508410226202,-0.647067453017793,-0.40521054354334424,-0.50082622638792273,1.0045879111393006,-0.017397348097147772,0.87167019261362011,-0.23922159003917426,0.48373397512310395,0.57149480787585938,1.0184575866648009,1.2192517841201589,-2.0033874162564156,-1.4998660623496918,-0.050800662512008654,1.6227149142253263,0.17827788025733959,0.90791144130878187,-0.18372361121560979,0.34704491690401873,-1.0888498837667935,0.82688250505721173,1.0630348827291292,1.0351586931772174,0.043851557696754528,-1.346032625235507,0.85737023230550002,-0.66475432652040389,-1.6174889533428078,1.2005663854612125,1.4910240931354775,0.27410713488255428,0.32076041105335645,0.2558951790330255,0.81737689355763354,0.90202100633092985,-0.1737758551726315,0.35969441281761871,-0.16556372967654601,-1.2282869382164527,0.0029234111195108863,0.2465693269595621,0.54197773121216308,-0.87532852060583255,-0.17214998128229109,0.0048205770606576043,-0.80363701906792162,0.63916166854215029,1.0411835235079963,-0.43561940058458476,1.0000168798340476,0.075143384085420914,-0.37734456827308172,-0.35951158124540544,-0.50492480704720333,-0.024790301374068419,-0.82574619753282086,-0.042346187168217482,-0.64972551239168563,-0.22329933731563212,1.182835983711952,1.3864473738394067,0.057349628044651303,-0.1327973903963337,0.47100404494236597,1.2731710982047801,0.3742007020963361,-1.1257297413652421,-0.79696116140622786,-0.30276084705249307,0.35265716604894548,-1.3209273746145764,1.1878136805827717,0.62060846991934315,1.2917994630271692,0.95764003130654896,0.44697982958121163,0.13605955535154002,0.72896875026103347,-1.842522235059316,-0.78178755018824786,-1.1124109881579987,0.46373348275342835,0.68661026343766929,0.47568809413785551,-0.37091921163933889,0.35354268105701558,-0.42659974152877256,-0.31706160149680851,0.9223337507208843,-0.4097278074304247,-0.90786942564154216,0.2938640471597993,-0.41016994412883612,0.044692252529272794,1.0148646811264215,1.2805984037983558,0.031754970371765522,-1.6876606872329398,2.2864931905857082,-0.73610894091851453,0.39862092785690967,-0.36650656567924911,-0.57631215759649057,2.1991491301132946,0.4714496720037159,2.0422216150383812,-1.0778558663738118,-1.5784431965014989,1.2608929202400316,0.89619710112880591,0.38724290797455163,-0.18181400684260762,0.079001209448591084,0.073835942370705496,-0.71445196210664053,-1.048697095812384,-0.41053406217318789,0.045065309936626559,-2.3261373175949092,1.0754266582167169,0.20158127472430304,1.6130196032225284,0.61802391713137095,0.81106215377265134,0.93538715326965349,-0.6075470511586899,0.74266865311383623,0.045544322092905924,1.3818075724812124,2.0802509341176871,-0.14345081590467215,-0.80485729054065025,-0.04740945695972866,0.67910207811945045,0.18313099569776045,-0.53977692633995811,0.67674847230315638,1.2995901996787043,-0.43273780466154232,1.1109983764697307,0.4931551951543981,0.25307370386205019,-0.23000381736012399,0.33823203241743671,-0.29371384600711659,-1.5284059218205068,0.09667398677599344,-0.84796092575320681,-0.016497690148318225,-0.01224752480278112,0.97926332724307941,0.14177256714477626,0.68102343838760893,1.5199279706907665,0.96476568551361253,2.588066815837152,-0.10486416721664753,0.83779366809911326,2.0123321630169015,0.35556804999157515,-0.65889215949572333,2.4949414432326185,-0.52206163599318178,-0.81223131444712227,2.3637011879829029,0.41102923084697468,-1.0341403246658558,0.39011217757805366,0.27500985948180645,0.25989386219608357,0.085911229857937699,0.47359616753462241,0.62736146287978944,-0.16955594873862759,1.6022166982726227,-0.50866930904036922,-0.13334488558768062,1.3540512252183887,0.41385929404779181,0.23785607035134926,1.3322326231511636,0.18338651396189312,-0.89807896460173364,-0.26612975803964883,-0.59335881159121251,-0.36690153460892838,-0.040773804877337186,0.75069591824986426,-0.49973891650029839,1.0601707826880569,-0.051241691231253064,-0.71955548411140802,0.71605268804833067,-1.1913427799533907,0.090633378314306207,-0.15038220240709979,-2.5407174611511261,0.17696407954773355,-0.96652692426023157,-0.12491123975355739,-2.3777324694440551,-0.52368944013987107,-1.0507453080670504,-1.3066856810153298,-0.36822222325835086,0.70745713682112599,-1.5902506491768078,0.77131946245884297,0.28701670903616572,-1.419769401330643,-1.3048126412078038,0.059306818174380549,0.70646779856570985,0.87390415743849181,-1.8539912355823625,-0.7116710516660486,-0.091196237634015007,-0.39552265939472486,-1.1851893144610992,0.4291812430667864,-1.7152129585615719,-0.57644911778506258,-0.18822653061862479,1.2853782002064928,0.64179664853408003,0.57885377840583663,-0.57181540476186032,0.4451089429618077,-1.5005788820895292,0.90637786218148009,-0.8160838803335656,0.76813618530230099,0.24492762763090903,0.27797503869130397,-0.59008085391678844,-0.35405463073521287,0.86856219264391854,-1.5799887969606949,0.17780203292236835,0.25514622256396863,0.87390040493009713,-1.8300866119198327,-0.89596601239878881,1.0213256897265632,0.11707201294129657,-1.3174616834548405,-1.0803222391885638,1.6658467188220571,1.8296936375187542,-0.60156203372166461,1.7723878504321924,-1.1622426636458347,0.75463604916044591,-1.5998500655545049,0.40453124529562506,-0.49021032734359726,1.0448426105682862,-0.11223236471130449,0.21979685830814424,-0.61010727760674888,2.0654130501108603,-0.76495049299931461,-0.093908480368863623,1.1707424251104577,-0.16013167450133017,0.65624149596202086,0.0358541315229393,0.076284804660806255,1.4579163907450836,0.78391763035648776,-0.17512033697433388,0.90928904705340263,-2.6585084379573134,0.27996784764418231,-1.3057210087394684,-0.3307030530283101,-0.58258132287201414,2.5003101154129359,-0.22401140071368475,-0.72688742143311857,-0.62457093889936888,1.2788917772622239,0.39562261094102835,2.2626405094753101,-1.7123755829946483,0.087485031648918049,0.47722630045691944,0.47307035970072286,2.3062861882603398,0.38146911134910061,0.30365484818762933,1.2201830175453496,1.6707218119283425,-0.45116987921877871,0.059005667389123037,0.68223181593710813,1.4998971140744826,-0.21743777517970425,0.57562113265512538,0.45926021119860638,0.31024329198745304,0.79012780734224741,-1.3196480476494967,0.48426706457650398,1.0584841183834668,-0.20504636718238056,-0.77721970226663029,1.2676645356981806,0.71068365816997792,-0.76113454061615105,0.60265912406050814,-2.6968250387343224,-0.8054985000989825,1.1292380593324214,0.69755734549282422,-0.20733050031421538,2.2173067866422467,0.78902561446125774,-0.32037829630056353,0.4457073861316635,-0.05967488780935129,0.10613850806689749,-0.37719614743078606,0.23493673057298781,0.9259468730541025,0.97579290909776106,-0.055082419039756012,1.1984944366227717,1.1165760474679232,0.58847003667660724,-0.17283254596868208,-1.489387168934426,-0.10547757719308606,0.17788770599383585,-1.4663278899718053,-0.83143951547254147,0.7971051161083702,0.31306692549439213,-0.18220673445054225,0.19224822901752703,1.2090270601218578,1.9121737884445555,0.90909133299477962,-0.93254530402196867,-0.11360454965494379,-1.7279186977296477,0.3727807543597389,1.1344221705954345,-0.32310052383388743,-0.42987032622152704,-0.43635844550699127,0.10888530949878418,-0.67340886982920756,0.35860828495979502,-0.27843004887995193,0.60431993562690234,-0.41444244260891211,0.75595883524957452,0.07755429256823497,0.48901163796211661,1.3807018513315528,1.7730675225432504
-1.0332714531758047,-0.21044445741518245,-0.33977525049697294,0.079099736034466114,0.90497332395948082,1.5715212340562335,0.018010382711787721,0.37754253364886808,-0.55972621977103054,-1.2348898573205493,0.78230077808413045,-0.78453903086779264,-0.94082915165236425,1.068955097294688,0.16025164546620105,-0.31521409514095178,-0.45890408252314591,0.8043540028787951,-0.82308133743662582,-0.15682814722214583,-0.59787627565224444,-0.0072599960383906243,0.28842242062825402,-0.22454358001399774,-0.93175745095357232,0.022028418588932723,-0.45022927119995232,-0.88806078820522072,0.27168775502661607,-0.20680018802523906,1.8981401502860251,0.85853301182198538,-0.32032574132370234,0.8888755189994334,1.555469181077896,0.58999451745861009,1.973805721516193,0.26887132424455534,-1.2184574337915934,-0.92440399218542724,-0.64615103709260457,0.35567936577277992,1.0980772989511369,-0.20113540781461373,-3.2386635427981405,0.78654902031390017,-0.34642994137869904,1.0337496320499793,-0.44253716428040241,-0.056999313922911986,-0.56842190840342499,-0.10686390353807819,1.8648629908394196,-0.20592582535153431,0.029391667114057371,-1.3498686285986627,1.0319214985322318,-1.0953417207888994,-0.38749200941616979,1.6396317807760321,0.15229860522242844,-0.30875437062301681,0.08850920719830245,-0.98087954896259644,-0.819911522982816,0.26446574954588137,0.466500220219774,-1.6713070245807371,0.26451108788463673,-0.47907308517860892,0.97184194741082774,-0.23914672717466443,0.21414679078600754,0.11101679711853664,1.0069137041460476,0.74195327627144281,0.74420697998681085,-0.32067924676869303,-0.38162198441462541,-0.063619336240762506,-1.1375336462460652,0.47672068801048795,-0.86935545786785995,0.96718972575826545,-1.6857101241672479,0.91214519510454195,0.074614436672559153,-0.87262539114343285,-0.27654966795517849,-0.78279637059533291,-0.17855868605388336,0.60846754902869171,1.4147069267041059,-1.2218131722851928,-0.15011990744222803,-0.12208416456011419,-1.1688922339083203,-0.34435710705684969,-1.3637489592145877,0.72303186887288839,-1.0009061692127923,-0.66073781165096723,-0.54800858685629072,2.1191709868712656,0.94188669786663104,-0.51048952187798957,2.1033773998254857,0.54610538284559973,1.124332792867319,0.85286024906433111,1.477420965494439,-1.1996456012715326,-0.40085583190796453,-2.2355160834270236,-0.27271110055379377,-1.0633253044854694,1.0579532367974933,-3.1663353062472224,-0.21681858729855696,-0.74707834376210758,1.2372482984282096,0.90466531309289544,-0.026084208551825305,-0.83606822161519534,-0.058868547293904942,0.91304876671765633,0.33660596018299216,0.48229172242909757,0.19399789989106067,-0.90605348337735003,-0.37166400901504609,0.6206231408592795,-1.1617836620551696,-1.5615691746875788,0.37933567104603189,2.450281464326967,-0.22192524232947383,0.77107985082140862,-1.395266736536896,0.6361154531914095,0.43266975936114249,-1.3287960753944983,1.2036245656986508,-0.12859958930048573,0.78062552511978045,-1.8753749798200643,-0.48999760330054543,-0.20563310877210147,-0.19064519137358849,-0.1036506843205639,0.84026862800204682,-0.31024317223860853,-1.8032202810840472,0.49225565207490729,0.33804603714008946,0.0082426275166742145,-0.28195399010504146,0.65615422884788255,0.70868466738403402,0.40688105130692193,-0.95770458007646164,0.25895129067388289,-1.0442952007700963,-0.61767360551390349,2.141409208843974,1.4184808279800416,-0.12392351153649031,1.555299699594576,2.3691088660336983,0.39746285521069968,0.70758268180818651,0.67099879717565392,-0.85411740171801487,1.4480837971433376,-0.40401733833141312,0.49386792561388154,-0.92851186483036785,1.3013944595983904,1.1638939283519227,0.67017868332606567,-0.16104479671107089,0.74581621250583785,0.78924987604466601,1.1898079316799088,1.5631849426880391,-0.34855950201727837,-0.2399662496574563,0.061072773714241496,-0.68848259380646437,-1.0933348016698257,0.52351734586843934,-1.6752385755974881,1.2276622037273686,-0.91287024689937746,0.34396824818057237,0.098624611890609781,-0.41793879573456333,-0.30295915979624077,-0.91627742499944642,0.80674445481451029,0.30599726131264432,-0.15286642144801882,-1.1626955714495817,0.10697617539428415,0.83230052184392134,0.45872751068973705,0.59364121826215488,1.1671577635182269,0.66113639223371012,-2.1207560833254622,0.89386309848829515,-1.263252346036152,-1.0603893765380514,-1.9951501548088757,0.26393522896673166,-3.2688859409646778,0.74655603728854969,0.15063316852131747,1.4027857519451374,0.45857215080365854,1.1389116744690226,0.49163464436691279,0.94554488301316264,0.045021930828779991,0.71977144049726649,0.10939658800200333,0.41097304644986321,0.28800832394025327,-0.90800451354332601,-0.88189845581253301,-0.10466420825022671,-1.4357116917891046,-0.14158416638265631,-0.76025253338155097,2.4670864469632736,-1.7363521896995149,1.3598987124584996,1.1589129549064787,-2.4590729034895427,-0.087997025348650323,0.5627656604766087,-1.0766500202634643,0.76679301567476643,-0.81805779903362941,0.9133485949123028,-1.7322750363023971,0.50057050538318792,1.588309058185585,0.97712797957207209,-0.24900822551405283,0.26892661299057002,1.1447222507639556,0.89737582406389593,-2.8265252488957002,-0.66806953095252852,0.15689221979881895,0.68913439849198832,-0.63126459353135644,-2.1583573346039633,-1.3119218894988109,-0.32210986917275053,0.91166510067791862,0.11016412298788769,-0.11581547627587814,-1.4300557660729318,0.69019260871456733,-0.62609790107965846,-0.14425337823296699,1.072655637300638,-0.21796026540583269,1.4133448805669033,-1.1029439861252937,-1.3508731808452676,-1.435600795461661,-0.81420238469783524,-3.2321358647039089,0.96974313993215622,0.58633694680475212,-0.52959002880670747,1.5384765013710704,0.46211983743183926,-0.26763593287473397,-0.41125841090282161,1.1405825578694935,-0.12918039184794122,-1.3209548433859499,-1.499455819860571,0.50672712603100367,1.3441757341696619,-2.3898166963062928,1.8145614604431801,0.53762983164949618,-1.5223195908080394,-0.61536701482164324,-0.4233907230515529,1.4923515247588506,0.473723526259832,-0.74548438933143335,0.25676374404456942,-0.93684463511067806,0.61254002667259555,-0.41409102176866497,-1.515359051688242,-0.41643356258643749,0.0038945785653621257,0.37149176768273667,-1.0022926936938181,1.3732417283884768,1.4540207726681342,0.20112297820543346,0.035273688400279744,0.54286023441433917,-1.7553024567518118,-2.4706479972718385,-1.4094723438044676,-0.74071162058173434,-0.53612181167709283,-0.27221438188606573,1.3564364297355755,-0.70501187092174367,0.92052128967119839,1.9651552999773716,1.2128650726852088,-0.34793701467653992,-0.042391747734218173,-0.6216383793617849,1.4308626088327998,1.3849769999442698,-2.0153931722067915,0.15397742573753795,0.3678926502737429,0.67546051828815101,0.62926593846482282,0.37959832727772713,-0.56322227275831394,-1.7010063537582527,0.56646660846347885,-0.099318850634215652,0.55791669719405235,0.59731663915177102,-0.2347574809385776,0.92008291457896241,0.2793862409812003,-1.7160554427495147,-2.118077362233139,0.031286748804323264,1.9436591212675103,-0.23258083113427741,-2.0074609292140151,-0.21204030875794525,0.14108371958035043,-0.30199862088365143,0.95605726156648552,0.40433662975781348,0.57292628747867713,-0.29330230362994464,-0.28032039945223608,0.36071832328362946,-0.43686338232250671,-1.667988149572436,0.28316724754280659,-0.18689610133655554,-1.1640516171844011,-0.60953727015340253,-2.1385426186031888,-1.1142858230571784,0.68760849703386384,-0.54441719805066646,1.4806776643084825,-0.6328165939705841,0.51551207367710095,1.5421233968227119,-0.50682245184421026,0.96411268892760071,1.0191216071242908,0.93193475645250068,-1.0657450763756628,-0.20994456704952844,-0.022579875249374819,0.33006054780617528,-0.1922627602211433,-1.0447725952482041,-1.0009165977693424,0.15522009560165267,-0.096425685798680077,0.69149099080347931,0.85758252200715068,0.79655412198475417,-1.2248548975302533,-2.0405454554807534,-0.73131187335586034,1.4486157222872769,0.15094357788607557,-2.1455715493068075,1.0868576700458004,0.62418582002169332,-0.34721601967874177,0.12436809885638672,1.4713133683835502,0.91170339305688641,0.12525980625751773,-0.014222169302024338,-0.84075621244265553,0.10284537176691357,-1.1403597749053729,0.48915459638791525,0.60575778947726433,-0.58222428931950876,-1.2972332722059496,-0.60807785556941751,-0.097530340094180448,-0.99195081011648778,-1.6198538381647816,-0.25428333959950755,2.1019177227500756,1.1606820788653378,0.75786785264097511,0.1206420398509722,-0.8934923104527237,0.43636917885381327,0.8513443829069457,-0.29292684527875429,-1.0713066738297083,0.65009818649549223,0.50974019551884797,-1.0087291807119474,0.64627794811169526,0.43219121728549931,1.0918890300636301,0.83383902742849514,-0.23235710631496367,0.61057898911541053,0.16813866557852458,0.52629225600817409,0.3656852065435468,-1.1002769552581397,0.44246268009581852,1.5065085446556714,1.6436568982611772,1.7620225034847192,1.0580979323792419,1.0608176670560725,-2.7462741550330807,0.0075880565806755547,0.21351890234042972,-0.11255610109996098,0.90634110301856541,-0.66508433914168985,-0.49863681020297013,-0.3589601564377185,0.59017876830643512,0.29883489623898019,2.0137054282464821,-0.7663309005576564,0.33522964488866697,0.12336233949529936,-0.57397829781143561,-0.45902902457753048,-0.073650472585698901,-0.14919943375967223,3.2352321136226196,-0.76586944239217492,-0.52991398855300387,-1.2753761484695951,0.20095417200463059,-1.0750102353577642,-0.17004908881137157,0.079694748255464715,1.2267951346621258,-0.029794288438992796,0.56730655375650052,1.9043311251168629,-0.64239802321428174,-0.24536904254123909,2.3350686237831102,0.32400829882576987,-0.95954924238226491,0.41867924278905272,0.22537904718013155,0.0069899968276995366,1.4585810206600089,-0.55580348361265186,-0.38053258338773899,-1.1085535006808116,0.48089302082423807,-0.075765234311905169,-1.2608110687154577,-1.888273441105268,-0.62329162002114813,-0.063498712226356696,1.2697913284160691,-0.9600805876565881,-0.78714124209436465,-0.44268484255841695,0.64022587608451276,1.3105887022703717,0.44172634668953537,1.0323664510236292,-0.74066458648670108,0.13548497404708276
-0.53543650571805834,-0.076811968116874116,-1.1162263093092359,-1.53924841378215,0.15361541362083111,-1.7776588722708988,-0.094066673880754209,0.41623036491454668,0.61537202460487017,1.2102287589118745,-0.037540096001217563,2.3635074319931899,0.37571677620566585,0.81965798627387099,-0.76508762373598271,0.7904544127658597,0.15364265403908506,0.14611344404161128,1.5241297257231119,-0.56767702655591978,-0.41210452943507836,1.6241930306282371,-0.62517985196071069,0.96110225081085909,-0.65457490209820912,0.78030916546402973,1.5587282409379826,-0.7171569541576025,-0.77727849172405838,0.62096015246809111,-1.2897027472815035,0.44406347603159324,0.55766806079776399,0.95371133370476202,1.0451933215332803,0.84503833816903229,-0.52286236135073338,-1.3174417312173592,-1.5070082435996475,0.47667105591344522,-0.12894599325698528,0.27527553991708281,0.97733109317922739,0.86961773356095939,2.8027677639945314,-1.7855994246282076,0.18337276318567533,1.3817405604913338,-0.091897328814660104,1.1006459093391934,1.1377477705111168,-0.29566659157888919,-0.62221203768036826,1.3357331026017532,-0.38538544343023973,0.5306918844437144,0.96481275801634325,0.16435326380585394,-0.81190712918336105,0.99409044116144762,-0.79159915107393408,-0.27553023644960489,-0.76381554530199258,-1.3872990283144278,-0.7475521916067045,1.2748060995790262,0.75094346211692886,-1.5418938572336582,-0.64316596387757063,-0.58700047024396618,-0.75131008402605148,0.28430556071292096,0.74147120656582022,0.22987498853801425,0.79741582657728249,-0.92801595614204624,-0.11217097867130629,-0.99611064995756793,0.94389795551273681,-0.90060117460469713,-0.28415454711053439,-1.2042584315698841,0.18253567616476218,-1.4794448506661868,0.01379429353741351,-0.31912636124138816,0.3586894676391601,-0.46372054488155728,-0.70093107866397952,-0.33383285863023976,-0.72861831808849498,0.080046847630843007,-0.79244348902857031,1.8929432678435616,-0.62271674758932194,-0.27910423553998404,-0.32479224766935061,-1.6211838403715462,0.76835186793628207,0.25888828123975322,0.51911557779431905,1.4030528393805601,-0.14785447152814207,-0.082624099236365309,0.49506599228623971,-0.66861968709213881,-0.45414696845985253,-1.0375074978581551,-1.4581861132462672,-1.0283551246651412,-0.92966746186798344,0.88676180545504346,0.25566905659230749,-0.68842999405777894,0.69289753881166849,-0.70607487788714296,-0.27815669947360966,-0.5409904000142588,0.067048188116908866,-0.42867984902099909,1.643801216692101,-0.86776736332859472,1.844511786553759,-0.78541898755026163,-1.8433827896715176,0.49355841581190929,1.3970421275819378,0.48305309458195,0.2695899674633056,2.374176228308456,0.96209241302450976,-1.6451972286450167,-0.53446253341055017,0.54444807190470745,-0.35266626122012723,-1.3838638418689064,-0.92328486938234233,0.63231238431089509,2.3858981708698521,0.57583508910296377,0.11548181154029012,-0.44068625203758749,-0.57523914364908757,-1.0614151555014244,1.6428798180023101,2.6557446184386748,-0.037571069092802264,2.4485644866526006,-0.10444441874877854,-0.80939705282435281,-1.3767381217523431,0.3114757549531505,-0.83164043826617973,-0.14023632173320164,-0.15593049004330689,-1.3308740394984211,-0.40952312030959687,0.63168430749142745,0.76035933447331894,-0.032393913198587095,-0.10297817914131004,-0.20801275961016158,0.39580417800025047,1.8665014839604688,0.37965527097639579,0.76388041050768196,0.086445944365308308,0.13283514037181426,-0.32362463710821338,-0.29783051365853236,-1.342816551874279,-0.81162528477386919,-2.6274541748033506,1.8997522218327305,-0.36623586573574968,-0.73047868532046356,-2.0860979180034382,-0.41595236361356025,0.34521986178616887,-0.080612423933273392,1.6634294646160599,-0.25786270694510838,-0.58845001579659006,0.84722312205463191,2.1684286300596449,-0.50981229547228757,0.91549577684148697,-1.1960813463516267,-1.2853659984332653,-1.1038119203399648,-0.75656168453547556,-2.6393107813934211,-0.23058059591112282,-0.18911663038787666,0.7137682474714786,-0.15684096867548233,0.086679684050973899,0.93371761777532825,1.005515345347626,-0.81932096994203452,-0.75494272556017272,1.2164251337226735,1.1785916461422774,-0.89569574073926184,-0.71881889779003427,-1.1046119306456135,-0.90915452822458021,-1.9995104925726861,-0.48063118745356032,1.5399591158894805,-0.64793712261710223,-1.3808308872212274,0.77089243539409669,-1.7539716946931694,0.68901165509104012,-0.15944340411976271,-0.53356731542963143,-0.46580670179328948,-0.48692942979543602,1.671294144268906,0.17322830547045726,2.4394199522783704,0.030118712785213237,-0.34767043134368381,0.86995098247394953,0.24454561331808625,0.081660444279038208,-0.35951856917233366,0.58928311420397705,0.65650249909618963,0.89939814570481247,-0.26065447931673857,-0.64553637042485035,-0.4776875235895181,-0.65760287131210837,1.133912285010243,-1.1695367706048714,0.25825256605747915,-0.30425491708958913,-2.2853599451482896,1.7468512941218897,-1.035094171101876,-0.2851815947486398,-0.41644269749730489,-0.035233409043590271,-0.93079242421090047,-1.0999893210619247,-0.58124703964840274,0.32946308407240382,-0.11579885950118016,0.91500030178300329,-0.64065234532976356,0.15700715291211997,-1.2081451049139658,-1.1619100491192518,1.2196618706961866,0.10955016282309003,-0.26514171160194955,0.039407145502906256,0.060898233992519646,-2.1505843615201279,0.69994159382049603,0.56222152430586769,1.8729215377192359,1.1972209039260808,-0.42994737200446825,0.98965571193804969,-0.57812997243666764,1.516580398263879,0.89434649873983074,0.27396679750741615,0.019881656284014917,-0.86196125522252087,0.71299109228755986,-0.5617656302065771,1.8352210624196168,-0.66654671619205275,0.154263811857554,-1.1696002117732585,-1.2932482291495213,1.3673629003305603,0.11096368253981144,-0.57161572360280144,-0.29538197677759181,0.46470082886273678,-0.14109620256676667,0.80384582194857124,0.15364663563354178,0.20645793233497597,-0.17627730639633563,0.12272428759912477,0.31040347450495814,0.17026802581977957,0.50816249205801067,-1.0861829358940691,-0.25767352526536147,0.74934597692104699,-0.5805415784696244,-0.79599050280953854,0.64879233138635917,-0.63315018656518141,0.66565677788437316,1.6673840180128536,-0.99594618846587757,0.79581610062098074,-0.74419337207587888,-0.93467194725731828,0.87787715118852361,-1.8504737139403598,0.46090174721328769,-1.8005132073979884,0.6628909195529582,-0.55712802680759521,-0.83692966476592057,0.065534776387799282,-1.6476691430719732,-0.51280341699368792,0.47637325261718494,-2.3044165975066431,1.4184396978534464,-0.36613706731409185,-0.018890249437526312,-1.3076103133626418,-0.3892695284534482,1.4208577507427995,-0.020381322933873128,-0.31684422548861974,-1.4794938160057616,1.1676747828739829,-0.19824265557809784,0.54528433452250291,0.045466365605241074,0.84842632679981,0.43534608099418504,-0.62587547786486886,-0.7393044562684743,1.4380560360628545,0.063319275842427733,0.32727477707042957,-0.0085997768213457726,-0.22075827921601768,-0.429795550182549,0.52865645385579296,-0.24016311744521995,1.7698558121125743,0.064729759560569547,1.444756048589946,1.5986158469754543,1.0620065891461596,-0.54938167365027002,-0.20280060339090034,2.6626213073246863,1.3128690977425002,-0.72314987322527646,1.9838397917198707,-0.36835963796061838,-0.60402597495643795,1.4596954492248353,0.62827095145836209,0.03859834235116507,-0.011030171848842366,-1.1381015544231146,1.6508891996516897,1.0669067306744218,1.3366014779741331,1.796157446849928,-0.92181732161694274,-0.069345504397458443,-1.8514789378022787,0.39161028454740732,0.81856118980066206,-1.6267155043024424,-1.5761552872157245,-1.3817049831971258,-1.5108888010177812,1.00983993247393,0.78956109880308922,1.7114280771044528,-0.2160254448649204,-0.97680371858819248,-0.37393199009876593,0.024390766540886732,0.94328790152824793,0.84672695676834597,-2.2389386613235702,1.7142999131701988,-1.8841916452330687,-1.187207979868276,0.10014474838872532,1.4715803380404771,-2.0017534145078204,0.89309803691881595,-0.62903185732999978,0.39222816462280169,0.33273162884274937,-0.33685304547585182,2.3239553243145976,-0.42590448023747807,-1.4762258386997442,-1.2739037252359866,-0.54425575394509274,0.2793291523410501,1.8197788879685755,0.89104157188304234,0.50065830750992069,-1.6938991888314341,-0.51922898377570426,0.3506184248003345,-1.6848401155356059,-0.095966514139633849,-0.58065007470423002,3.0049829700971782,-0.74837313330105382,-1.3088129158725397,-0.96406055441438443,0.11414329827885916,1.6057513477404628,0.67791624111658644,0.29923198903733195,-1.10195739408427,1.9416442108657692,0.59705370576957539,-0.99992845635616989,0.57942616323453422,-0.63685924475154387,-0.51025651951254314,1.3583823953794012,-1.3854799030567693,-0.70362837333774253,1.5109730416765887,0.85140883225739672,0.33156726437002021,2.1058532860202623,-0.21943698404369133,0.29416067685072994,2.1146120998887343,-0.26741454843555407,-0.3976478530197145,-1.7633497783056125,-1.5629056065219096,1.6051773007066197,-1.1350862595801796,0.17148753707315967,1.5206395756257511,0.5620770397274214,0.61828067305299661,-0.56274243005695868,1.5551662148665113,-1.5383202296040024,-1.8606078358682467,-0.24808116432010807,-0.5700965266036947,-1.2008353597685217,0.92060349419615151,0.090695518309006184,-0.38535045011066904,-0.075381026522844355,-0.75494079162012606,1.1487619777478519,-0.20139253152149278,-1.0099429968574389,-0.74346570590835259,0.99790003511472669,-0.27540616539842155,1.2640698978311762,0.30248694892938444,1.2048759418646686,0.60998974582029242,-0.60908788612555331,-0.053070806937904121,1.3351202883972422,-0.41049630717307228,-1.3596667949351096,-0.033774325447886042,-0.05973232886874566,1.1069654965027893,-0.27134016520686011,-1.3609729129254664,-0.59128645639095523,-0.40326848952187272,0.83202857999463908,1.3190859294184216,0.39381341666967429,-1.9826322689228786,1.9089326438165308,0.01097650894364029,0.66138263507633854,-0.47551115835979457,0.84040787336974054,-1.9236613537707361,-1.3442348606601637,0.1041884349883908,-0.79509675991086481,-0.03183810537863304,1.469115016793912,0.4297794388061083,2.7146021570252707,0.08073093002876236,-0.9157416778378934,0.057048789357878542
-0.94696274230884936,-0.89492384343533149,-0.47911671713136444,0.13114557090516593,-0.84610969472502584,-0.37028969096940884,0.9018429158054736,1.0185227728883424,1.7778213483745466,-1.3337849408824614,-0.43982394043005196,-2.109287810301689,0.48229265276005001,0.1140916632911577,0.58644645555956632,0.86907884644142208,-1.164757502164222,0.61621047191099454,-0.3458683686720988,1.8427194019751185,-1.0458437544918389,-0.36341387192260244,0.57104534150635511,0.18057283594713455,0.84886820074696223,-1.2696842527321861,0.27669821524239319,-0.061589916497388056,-1.1424078679577159,-1.3484925169749138,-1.6078921339679995,1.0756570495059812,0.66457314955790603,-0.84620901504862633,0.6325275855280923,-0.83955541997170957,0.52572754283031831,-0.18054224699789417,-1.1860746744050339,0.22412695384417772,0.91175498886001294,-0.42142927460779045,0.59615771522075811,-0.24120890327605621,2.0778571459199351,-1.5543970078756915,0.46213691576749705,-0.63148352475773539,0.22657918152987852,1.9134740963034971,0.72005590071794423,-0.027872539341742376,1.0942048642454583,-1.10482583539498,0.27438802627465358,-0.3671568493307244,1.3794500726130778,0.74976186794721567,1.6237337032045491,0.53137937519022627,-0.97678572567539101,-1.8961145148332652,0.026894675734288814,-0.37669362150995939,-0.99301934904223021,2.4565613577756467,0.64143314250789996,-1.3111207176808262,1.2079661582659977,1.0142690043217844,-0.018993682729308858,1.428430575278206,1.999598555575218,-1.3085353029149696,-0.28021540823728813,0.66104446597065059,-0.77247578673823658,-0.92019897306673859,-0.11911310179610435,-1.3570314825134995,-1.258315465624289,0.20085504861092937,1.2317004458968384,1.1824395203237499,0.34212904550113388,-2.0211707516086994,0.14009567176734439,-0.20385280820785281,-0.21203626567955963,-0.88195420186192841,-0.27000781886222924,-0.44436893830535035,-0.0011158323435510348,1.6570697784638961,0.33396046826520009,-1.4921292146705742,-0.66836473825756915,-0.0065201499588363569,-0.67993638898803599,0.02992285312754139,-0.58669114389981569,0.7329209934332882,2.2815591228148677,-1.3854334554578249,0.92028136369671665,-1.3861776362641589,1.0913568855364619,0.40804301485832256,-1.4095991237120109,-0.10227087133161636,-0.0752079299050082,-2.3472707670544115,0.30098561080774072,-0.42781578690707484,-0.40960362299738445,-0.54968286501862129,0.5381377705824113,-0.12301510758404238,0.08161079078726273,1.0755867586073624,-0.37408355354388872,0.029045560811925799,0.67888197424650587,0.4091466841330279,1.6954118629493202,-0.28939671853919063,-0.60828566646183213,-0.40841195662360774,-0.039730077718857212,0.11585439781847844,-2.2774200077709881,-2.5719443934910435,1.4760465657128474,0.078943530934604669,-1.5270995843914346,0.035613178485901197,-1.3833230638028755,-1.7747133510736932,-1.3105565408939768,0.7263506554882857,0.58150035680992551,1.1933147821365866,-0.63131157220936718,-0.9004527351733278,0.54719875559976183,0.11007252822166169,0.15697918729873825,-0.93170439612730338,-0.24598752933653489,-1.9728133634692215,0.19393886133809851,0.16424705247048504,0.53896875307677761,-0.42924738132988716,-0.49775972617010206,-0.54916379816357408,1.3660360292088958,-0.12039415890801312,-0.62850656389171644,2.0450701041089761,-0.59105871236182461,-0.8290191423538229,-2.1178176586247068,-0.61753588569633777,-0.027378903274735335,2.5903956641183359,-0.68158629090773948,-0.33288270353118371,-1.1373912622911768,-1.0113540445232434,1.3505906471860272,0.058169377476972289,-0.86935985672193017,-0.52774238591382283,-0.97729629493985426,-1.9465169405900717,0.78955689284137942,-0.23772813184631444,1.0812420761821404,0.15837505130086665,1.7754415341119409,0.91237961847772386,-0.028808434147057513,2.8944362944567934,0.75918703236167329,-0.48899436824814579,-0.21087591879074594,0.0083388561298861092,0.47515741945776413,0.20996872727596239,0.95459238877041752,0.91552030556857611,0.19935799018414627,0.84891642238740594,0.13584278321543097,-0.36910589420220152,-0.67199962449790895,-1.1060538246009697,-0.65973427605861978,-0.68574633434552912,-0.59694302805507293,0.11812479759772664,0.34593908731027773,1.4731517754340444,-0.4290483239636303,-1.0972315306850862,1.8959617729732359,-2.2179322588333648,0.40926682892680744,0.19804429843158688,-0.5474100899043941,0.81544382228242596,0.79354052903731498,1.3229339911861493,0.55005291688221292,2.0773122628495329,-0.50327297540262406,-0.59764909977947633,-0.085051784222975255,-2.1362777175406102,-0.15813585409056616,-0.85116290161926644,0.60362741729474101,-0.51528597659669495,0.48670702817544231,0.05030131997712195,1.0611392816337051,0.15163489267967442,-0.098908447458045057,0.078514233972567973,-0.046450865887801729,0.48771331010870805,-0.023293056570953045,-1.2887346768855934,-0.45054979519476918,0.68542804394250956,-0.12178188790751339,-0.80552682927301755,-0.62951028772034789,3.1442835394566093,-0.94129927355093423,-1.1606058824425647,-0.9341732690553054,-1.2913972761642005,0.62681577428621926,0.0064635803112285421,-1.0920683453838451,-0.71180703389899302,-2.0137451526671826,0.31367114119783074,-0.29783769248393632,-1.2122774750359162,2.4761080418174779,-1.5546477527026927,1.2090994094312184,0.88682800806020101,1.4783790470047666,0.53196485560860918,-0.51378587166223588,-0.83725900288755828,-0.005839923921950982,-0.85345084930711879,-0.32273470231471824,-0.65118150880381864,-0.73180604688777884,-0.63642966411148838,-0.96243678634081797,1.4236575780448142,0.87280098451750643,0.80160422285859934,-1.6983528184935131,-1.093046871662309,0.99637827326077499,-1.064096277488886,1.3229657484025779,-0.94119098804433909,-0.64934640215446671,-0.63267541393574989,-1.0991811089973784,0.12432622825012039,0.58339713615719135,-0.38525451393523158,0.057943652042698662,1.0481549412829523,0.32562554767952556,-0.10207793776035977,-1.0928477025578425,-0.89948314021007336,-0.31301482075060066,-0.041411679286590113,-0.88925709500736339,0.90359167649146843,0.16457328604187649,0.59726244049909971,0.59353585663553499,-0.73451717090983493,0.042531113565842688,-0.35180620844179394,-0.65454848522473263,-0.50385731294136005,1.6244058672846904,0.14224063525262168,1.928223538105297,-0.50742805357911736,-0.42903676892508058,-0.39964293873159096,0.37720146665716803,0.68726955807957679,-0.93067878453913289,1.6877219913366244,0.42319505922576728,0.86956045443466201,0.68068259480242999,-0.96336293856932509,-1.0655252638640627,-0.14595345841975071,0.7002759196313717,0.11392766476972786,-0.592632025396581,-0.27974596597680013,-0.8821272673441779,-0.65372233151327785,-0.69609443559298578,-1.2045777454754165,0.81593678661348767,1.1441601289688825,-1.1675585368601162,0.75815306921352688,-0.49185748856689943,-0.61170014676321238,0.44540092325967795,1.344778698860448,-2.4668616892352531,1.3747984860028826,1.385316892743919,-0.14407951721517009,0.72268477542813958,-0.88012472095993677,-1.2836995708620322,1.7115669997245646,1.3402290678410271,-0.27622967250244623,0.002960565884081212,1.0336794753548133,1.8755704356765943,-0.64761323167788043,-0.087497707385620169,-0.64389892622419309,1.1366549304669178,1.2356921161223968,1.6090874965449742,-0.54609543425967721,0.51068424899954568,-0.9727155036355728,-0.42446370615162488,1.5120894859154486,0.36237401026955651,-1.3370031633641188,0.8280437597197623,0.91780975673259202,0.12168623951085977,2.3358821352259338,0.47195059764245789,1.2973250883275085,0.97498406442551011,-0.36693814043546985,-1.241662923410533,1.2096157476867855,-0.090099885284112613,0.37856917742385626,0.21402156053773316,-2.5855897306492901,-0.97773392456272867,-1.5910231648355055,-0.51161217165861095,-0.080030044701140765,-0.25459409985568626,0.19316937924341129,0.67781915467032328,-1.3264820775325896,1.2283732181494322,-0.30518203252786819,2.9374320428656064,0.75859797358978376,0.18847633737275862,-0.67743976546049667,0.79184106181023428,-0.23604973428006343,-0.35926078215737334,-0.61508686307712224,-0.87546126469842844,-1.0517223679163983,0.27599904073303327,-1.0465322387015294,-0.52801944653253585,-1.5130958466785986,0.85499853305380868,-1.303811020065974,0.37795941643996944,1.0086772646290476,-0.6979128543002513,-0.36949904037532216,1.1384607929832475,-1.9961769605606816,0.77014721740553693,-0.77046611347481098,0.047454090916260974,1.1432900519539055,1.9221562107416874,-0.65505932883295193,0.516113382105017,0.28212018915312737,0.17023154572098098,0.51652118483186737,1.112200168404343,1.7378270068537054,-1.1061341853397544,-0.7388066867845331,1.3739527357579722,-0.19643929602968532,-0.19890320686967777,-0.28055531256650384,2.6947049441749145,0.48381680616151113,-0.66567612169667678,-1.7911514911670536,1.0329798649885717,1.0642735512144859,0.10476850328991671,-1.7076404072818525,1.1024404678389044,0.11256612621648202,-0.051338990222748307,0.7106659762095372,0.17215225736038814,-1.192389224539333,2.7840715204174979,0.62612670475797827,1.7667031501517418,-0.8572069210071207,1.6842748227541131,-0.9013644957103345,0.81293474386953746,0.4344747275319053,-0.079295054652269339,-1.6637515593642929,0.41327925039711594,1.1954465072611176,-0.50433758569431453,-0.89223989908632351,-0.11967968275259877,0.38990414378079302,0.30867972139690875,0.57476439715147121,0.035832104751541645,-0.27048412197942867,-0.33158177777521752,0.35116203405151308,1.5639571550892355,-0.86350355070739637,1.7557045515202871,1.0232608355779811,1.128701450562847,0.74671173196288465,0.93580920135460566,0.083899115870857577,0.50491923392816418,0.24742709719866238,0.49803143128327909,0.53536791145755769,0.76495220092347527,-0.44276253227874773,-0.66923881039174615,-0.95719409330007199,-0.34300678768170695,0.9464063626813749,0.94905259248585394,-0.46866692770420026,-0.59031643266956668,0.36765089806613616,-0.47294787835793239,-1.1498138924615957,-0.3727150736701963,-0.20215871490903886,0.421273227904716,-1.1379768943892941,-1.0194801718621656,0.36523568523570271,-0.16710926353101715,0.33132428251225465,0.37623152147454708,0.062462422965276883,-1.4345869574880803,1.1143052474588293,1.4579123674153149,-1.1039670402704991,-0.87928905888078157,1.5499052516608722,-0.27155743963680373,-1.1304898542130373
-1.6997597576060328,-2.1007963211325009,1.1856832586181012,-0.31093826614659209,1.131353975297809,0.54146903306693173,0.54883952653379342,1.2447020569805014,-0.39535273350914907,0.35467856974810141,2.014888719657443,-0.22450388858081002,1.218034489285281,1.1305454003339466,-0.14515606724419999,1.945631953491983,-1.4613269539392932,-0.74478049891263232,1.4535350124486208,-0.85711162032345578,1.8614477593212133,0.35187597485725502,1.2473714762239709,0.013842638431821479,-0.034587830727222733,-1.1554802669084137,-1.7254698077594999,-1.2524657875852965,0.36025276434298259,-0.01437907674425495,0.088997586486345995,-2.058910187669591,0.36374693570411892,0.60624265012415191,-0.79990315160653069,3.0668511309766662,-0.81804676775596863,-0.15781673997103468,-0.37329566868914998,0.43189502773848792,2.1899350512467,0.70251961229105653,-2.0014996489787884,0.8068245955088087,-0.18228871209378456,-1.937189493632131,1.0629999313534539,0.53182927300901206,-1.361574127606846,-0.32538378276246721,-1.7904003515064228,0.16270134947341836,0.0017735862367356343,-0.18883915666494375,-0.47721765165693802,-0.18386573695948291,-0.21549463983162223,-0.58855966570606344,0.42013346879948804,-1.2196084249620791,-1.6232970567632163,-1.2240579969734493,-0.72127608450497616,-1.3453316706581735,0.26394792707017956,0.20299414317112138,-0.79697574273982774,0.90520309684621192,1.4172574321497324,-0.56410568471525002,0.21654566746714704,-0.24720535720545181,-0.51647264194544595,0.24767973314972458,0.42649028672790296,-0.46941794729424952,-0.11932411772913451,0.33949319868953731,2.6349707609665427,1.7045146130750872,-0.23490569131847966,0.22715945486909719,-1.2566479785992113,0.3792196389002937,0.51785150618217191,1.5494148543926034,1.605171691703954,0.13552998876471067,0.059144440743150194,0.072165072446572484,0.67265173026835123,0.85852813345245549,1.1899566959807215,-0.22746552038407081,-1.0892105467030779,-0.010846713488835213,-0.029335881545641915,0.19465522707592675,0.48690330236075136,2.0272929086727256,-0.07836189964937397,-0.81212237449761404,-0.49983850756524645,0.78795486628756839,-0.90756463990015368,-0.43735044308649668,0.59762488164105987,-0.70077338212051732,-0.88950915966350552,2.8115757654504949,-0.82904383186180863,0.26983100795758036,0.21549483604297467,0.078224447228859142,0.090045429454613066,0.84179262255437992,0.43335262513415435,1.7095245453951291,-2.1706630843384578,0.13390036391208054,-0.76652661408576128,0.1304260075106409,1.3949911894649918,0.30231331853433674,-1.0569476370631188,0.41851039027425324,0.77123415830415931,0.32307320485723845,-0.49907679104891306,-1.0569544077816257,0.14477647130142593,-0.53298382679416023,0.076167013505654926,-0.55094587737659295,0.43692742794791395,0.7936184092004398,-2.1467606443335181,0.35657492552398989,0.077345197821439532,0.71850638451085302,-0.50692356527995164,-0.51935573534472135,0.89384311649924042,0.51275567632491381,-0.33678518924757705,0.61454957826371348,1.2043962192802504,0.088792543914736774,-0.78910410300132505,-1.1646919182152722,1.1566966042474214,0.37116550802579634,-0.37642405678244534,1.2331141772726002,-1.5046992352929267,0.35783147913340463,-0.53778694756198808,-1.4997354293096119,-1.1227826363712845,0.567112692665243,-0.71079378808025628,-0.43134378391743228,-0.94030181064786211,0.085737916766992175,-0.10768696974252658,0.90681948169643967,1.5410384521265359,0.097256506318017022,0.82182537777281905,0.40998616041049812,0.1167297240798397,0.27691224437316586,0.080867748282311677,0.03114078998299652,-0.64372677797286681,0.21427574777995534,0.46353356464165268,-0.39299087050028814,0.50172305307521115,0.039303776835616082,0.090177654919065833,0.06861931360453824,-0.9678746157109579,-0.69527774385119956,-0.13079886741053057,0.8799881198640056,0.41631291387394642,-1.2180769779351468,1.1680608438815572,0.53555807210994399,-0.012110788405478998,-0.10798582019704282,-1.5025278397546227,-1.1879989578850596,0.9978900932317285,-0.030322957374272898,0.14319162819442993,0.94021413352633709,-0.5175111957836962,0.83209297402976123,0.17301723573904065,-0.93057538679719332,-1.1428721608713672,-0.55272261118970467,-0.42464902410613792,-1.6684029378372556,-1.6377263635289789,-0.29987617688493873,-0.9436495510040962,2.0386683100132985,0.36971796746210661,-0.045185300143729672,0.74226616556498237,-1.3027247460731863,1.1067636350666956,0.12758795945447829,0.14564914286203484,0.92519573329275828,1.0520084129525524,-0.14178047567452959,-0.64712096607244729,-2.5017572572890479,0.04381848686202567,-1.3212144974593669,-1.0555258797770382,-1.8220575453792833,-0.033422659431312535,-0.56903437324881334,1.6281900511748502,0.45272928608659818,-1.9010226467539313,0.50006013201499355,-0.63462417787541292,0.48737122090214763,-1.1015699849697742,0.47519687805825234,0.11644104917944284,-0.11207726205803609,-0.077326603031584631,0.72778650024135472,-0.28531526538723406,-0.030754792673878557,0.024879193520101796,0.99806405394638742,0.01065256971382831,-1.0427950165330346,-0.80573332877240578,0.81708952831567183,-1.6194500355502321,-1.0840029433881977,-2.0843342955943758,-0.058525950007912456,-0.46820591463385075,-0.16166749251647738,0.91357188503930042,-0.072209156240551103,-1.4327307347086395,-0.61415821930569769,0.89612502904035873,0.89945906079561877,-3.6532196358511699,-0.88749218276512432,-0.1194198513192346,-1.7296954000484259,0.41232843747424897,-1.2066132617700012,-0.67231689690437735,0.74088671650235072,-0.5855383391945308,0.79841816188749803,1.0024808458611465,-1.0048211189034184,-0.84178441292777884,-0.82788350075216355,1.0055187448376408,0.63166500362859912,1.4589767924101873,0.35422229577059045,-1.0718253939506028,0.7755691278966893,0.88009899184041651,-0.18219429744933238,1.232264559411965,1.106557232798445,-0.048906124575188059,0.19854045487734906,-0.63518058321383797,0.55512921043248564,-0.075363937846389353,-1.062629987871474,0.98381177909840267,-0.69208193524408546,0.027086663633411539,1.1027589224406509,-0.45632567041857713,-0.086202743514552788,0.43052747088667687,1.3719802687819915,-0.68313154826622824,-0.40453788464233725,-0.70486850712945737,-0.08884557792382751,-1.1908166783946847,0.87143632923999881,-0.64102425632440907,0.75134195370766621,1.110975133499291,0.57530172516475908,-0.12369180315871682,0.59237422925888639,0.51957404554250763,-0.57716614378345477,-0.48169015328425968,0.41566506570757455,-0.56484765102301282,-1.1573129489326532,-0.38451171324066352,-0.61580186066812348,-1.1276427905170829,-1.1334690903064182,-1.563003589989898,0.64603345826641667,-2.0635892141123233,-0.59271767890413474,0.63234535599721442,0.38115903824847586,-1.3961350855072736,0.19327371421478207,-0.32208234001220892,-0.93490344845846141,-2.5685003875323313,0.18041847610625128,-1.2309312077681838,-0.15460276188636277,0.90129700420038183,0.86877248271230134,1.4185915559799716,-1.4641387109617603,-0.12982888014377078,-0.18176776478128445,-0.31742554726880817,0.56366681349863412,0.18345527258658634,-0.52703978962204268,-0.54756775460861284,-1.2223002584654739,-0.30790664968578368,0.97690368663637694,0.68713975608794253,-0.60706635412218857,-2.2770678801507862,0.10527105515471565,1.4838956938199852,0.61886392604445672,2.3857304160149106,-2.1157736746097395,0.60947332722335024,1.2220158757183839,0.55466824568325335,0.81657439152639943,-0.73087664903743044,0.96722542678958534,0.49394564771286847,0.89060865299276448,1.6593586311502533,-0.23291182322490162,0.074508994266790599,-0.76595332967452645,-0.64951431753720756,-0.77692548921456506,-0.89380094720115644,0.16300494701958135,1.3880612237235472,0.054256865973434133,-0.23961096398015214,-0.40913827038940692,0.21051548446907653,0.81375219671268151,0.052249496168965584,-2.3323933100419936,0.56236334039039138,-0.19961632664462794,0.79608565908796924,-1.5658676536220746,0.85980282753205262,-1.4789812837341147,1.2006371671719951,-1.012471077018166,0.80254187422407441,-0.45910498865326355,0.41758636222747375,-0.00514943579743377,0.014157945592962965,1.3640084833792911,-0.91227319831851428,1.6792547438244019,0.17447336629603799,-0.84347997978988343,-2.0694079404319314,0.21110985973047031,0.83626744652831808,-0.47804143606920274,0.23649583285295497,-0.33155820815292125,2.046734310487365,-0.55935258130346166,0.79159931969685082,0.14734033146958866,1.230679790088238,1.5828561503430632,-0.31230574352178647,-1.5018652071391918,0.11231827377256862,1.2911101099294024,0.38082680610261782,0.65490217062013756,1.6248057710889516,-0.20003077855796064,0.25325944921048893,-0.32626126218163465,-0.59093467627679619,0.65454181591946969,0.19312483817183287,-0.59909683459049801,2.4343771609847713,-0.17721004754390651,0.97304871531317638,-0.91730396240250778,-1.4082140059919939,-0.42325928277496738,0.17121624053575774,-0.18551229689690815,-0.55362758360101105,1.4043635816798479,-0.080208682085320199,0.32209848346892023,-1.0256994998169391,0.6710246051774974,-1.2773570194737984,-1.0364285213625468,-0.46269532824173765,0.45047284745546889,0.064734333793044538,-0.69413802775693068,0.78973887000540655,1.0607570749067969,-1.0928918700868893,0.055590655301270928,-0.11763360613143489,0.41010541419852181,-0.44304463103111369,-0.08695703019470935,-0.64523657053908035,-0.28468497582279634,0.13198165052935074,-1.9854073757837203,0.47396971048954867,0.32795038020698036,1.0795058219069331,-0.70688458435631063,1.0961359371260488,-1.1675490745426051,0.44409591988167968,0.83452113695760843,-1.2220546503361327,0.26096430183963554,-0.65771344999689108,0.393452074057556,1.0045539465263946,1.2899192993802346,-2.0689150582396123,0.8812986376391575,2.0435889879844584,0.088193762428220537,-1.655045201588683,0.27564004123118424,0.80448994563821608,-0.49293235920020018,-1.1332393992431093,-0.43756603854707676,-0.59013488642243872,-0.87023886632690162,0.40520281265376662,0.35269386835137573,-0.24861526385135524,-1.3715801868892885,-0.58728983544229352,0.50166548798842803,-0.93204114318697906,-1.3464575462794643,0.6897529329633989,1.472636601700448,-0.65804600967686178,0.55615450802627509,-1.3491061169575851,-1.2743925525108406,0.14273041576135084,0.62856047465917297,-0.13783422364091111,-0.80253462028061129
-0.76065517345068423,1.6065400426726497,0.1869794393941096,-0.22323030947952596,-0.22584244755273847,0.69260383068666576,0.20479784578234725,-1.6498965771331271,0.10373371759902779,-0.57246818545051614,1.0124887583996041,1.5677477210613404,0.47007225525815333,-0.087294440485045185,1.7567403493733391,-0.49492002279947017,-0.28200535035956514,-1.3106405999482946,-0.71217699903061793,1.8593228905272869,1.1094565378622185,1.6556006455360557,-2.0263375250768978,-0.74689971239017483,1.9337505533558159,0.56789533807342496,0.027562442045500134,0.12875439758043489,-0.62583775393059238,0.65153952395688031,-1.476152130361051,-1.7982797758014983,0.04968567135647893,-0.3005103527287406,2.0316728006499307,2.0473873568470844,0.49129803747344108,-0.22542765914017704,-0.90897457104316282,1.3522156679985502,0.72701704630910036,0.51658825433599609,-1.3106472751701359,1.3606547569571423,-0.71347709395672887,0.034471429354378233,1.7436629400110706,0.32270137547316158,-0.61376839939557626,1.7265971715082917,0.19816348525914965,0.32473732462891924,0.043288041271151968,-1.8435103502672361,-0.84719636682598276,-0.63463438235314673,0.62240246560907797,-0.82185563510687099,0.88364230901771335,-2.2579140763499383,-0.55035985917227837,0.82818535676697569,0.32997714291810587,-1.9184644903446626,0.73327544342473905,0.98027456727810602,0.27385619795670657,-0.86328328875521032,-0.40934889857130402,0.23498049161033768,-0.039310339228153371,0.27376481487765658,-1.0170749492404605,0.11177012352195458,-0.77901462464097437,0.80893374371781357,0.18917976472826367,0.41909486462036194,0.78441957954889063,0.89051370179227629,1.4923919399868426,-1.4231021079739665,-0.96697400720642601,0.1871394044525255,0.69232095652649195,-1.531256152980248,-0.13464995578994507,-1.3764881792097117,0.55590850406536418,0.5892940056885656,-0.74094295138942967,0.22959111631767395,-1.4433315507491324,1.2590348525308452,0.29148216549309303,1.221306923321277,0.84354701849160196,-0.052317986004391442,-1.4335365439078773,0.69156952956890383,-0.99051848828110245,-0.5955844534315623,0.75422561008252342,-0.29415673450610014,-1.6285709294781556,0.067237642611151741,-0.054611631849083277,-0.14024471929748195,0.33804089701900075,-1.3186220310865175,1.6542880494553367,-1.714774940111675,-0.25194438240239775,-1.2897270689224121,-0.42693347365013096,-1.5877984641405853,1.6437117769660474,0.22313891667467375,0.35099216980763809,-0.072261414981999506,0.25822404170740015,-1.06012589473922,0.62222554695650911,0.15955178954882909,0.23618506981188173,0.78733729094847771,0.54645368802785799,0.6409396965639822,-0.90799063291845039,0.17808700639177652,0.5919526955323906,0.64236244810047294,0.936810456167669,-0.31227360990336483,0.29284469552561271,0.025368664818118766,0.49932506992660758,-0.42158166299179028,-0.30607375146680127,-1.4241585941485821,-1.2711572352265808,0.7050242655704021,-1.7669294289741773,-0.38141360694979737,0.92101140805273807,-1.7519905353620475,-0.84030518653212227,-1.6643328668104886,-0.40792864090298803,-0.17031160923020625,0.96784731196472285,-0.29741726636650573,2.1672927851068229,1.0877839970832099,-1.0979203603503549,0.50540576665078585,0.040281283539171431,0.27396254599815667,-0.61883549769876434,1.2455536809421446,-0.44747005972011966,0.62112715157515552,0.31746194242792092,0.65355798962682299,0.76954955334344788,-0.38332632899879859,-0.96210122655116281,0.26045566399161385,-0.31862438014274724,0.44677199979566812,-0.22164040977317723,0.65491351945819654,-1.1115628533344444,-0.95888860387358954,0.22573952680926118,-2.4421728282753898,0.10174073657299741,1.0060911906908285,-0.71214118004174931,-0.3957618935243184,-0.69287353800224272,-0.91948644236905119,1.583776139964395,-0.19532593243771093,-1.299464688326341,0.54890235321776504,-0.383096372754134,-1.3558686527809654,-2.9013463390574721,1.1450556587234957,1.2971001161371458,0.79152717873405576,0.77376639312415196,-1.3450676655061735,0.84998762382300497,0.37574404445621212,1.0324515002767125,0.012936028760225286,-0.14639743064282432,-0.72674549586909709,-0.064803214715918336,0.56906348489701564,-0.63192111176961008,0.32796320981273469,-1.8979835219884282,-0.36363688006134653,0.59135056183300228,2.0618582073105611,-0.46252910765411936,-0.12908891329341446,-1.1006894743245097,-0.072666930608246291,-0.2398426966490213,-0.55586889534162698,-1.1135335028886588,1.1045081976029696,-0.6793549778593958,0.48891207273813275,0.90249905029971234,-1.9410525831350895,1.0341723178836983,-0.24023213320661488,0.33250481429689788,-2.2437531941654827,-0.20677965413006813,0.8977427963216289,-0.066438392082168993,-0.23222076658027749,0.84521352984930054,1.7446843392264795,-0.56365686230838186,1.2969875995555353,0.066150412132094008,-0.46038019625574617,-0.12825176802278615,-1.0993878068721996,0.57818553487392088,-0.02742701060574318,-0.55834385750790538,-0.74817514634153082,1.2811045490063835,0.34535676523088404,-1.890205314905625,0.98886090701957541,0.37034458061823133,-0.83583237466274851,-0.49606294822852781,-0.34075342994103397,1.279219036372488,0.75831162054850965,1.9080391319188703,0.49658419498567125,0.87597423124814122,-1.7506975345429183,-1.050136718219266,0.17221569943837184,0.61759478615243457,-1.3612054199681702,-0.37556072363358917,-0.94261605929873415,-0.37080128807256169,-0.01687659375246197,0.045353091401476163,0.85605477285354004,1.8284268317471577,-2.6198788359768512,1.0510426014120386,0.9045585001069304,0.96112665479323978,-1.6910940652452651,0.46313866931646797,0.23566405703391724,-0.94968179225297245,0.49806691409748821,-1.4621844069175847,-0.29315602871361784,-1.4154213219905245,0.12925963924445857,-0.19231209179743827,0.94562212911879162,-0.19708309524175951,1.2517675658364136,-0.20979118109559905,-0.068787695868520377,-0.043205342983252411,-2.1398467307984723,-1.321098865738177,-0.36747877130469375,1.899342621494073,0.26064625347292508,1.2575392615862893,0.38351719115213884,-0.52425471028080672,-0.35382349584085576,-0.56856001425669001,0.94317031093795123,0.035316260303951047,-1.4157916943509941,-0.37473998360966126,-1.2963882294351063,-0.30221086243940531,1.0839809348912166,1.755094794434378,-0.70392689137633824,-0.49467130554850347,0.42205703148665052,0.16425335623456497,-1.0184560020189057,0.14532460048585233,-0.53721093611080406,-0.64169795596161427,-0.24013356201964392,-0.15874729057255771,0.80988046581730722,0.35385317198848654,-0.62989679309871727,0.57208139536713631,0.87953635795369256,-0.24247815988690191,-0.80069595384826464,-1.3606258547543726,0.54024725363332915,0.5916387472648128,0.27867937113561314,-0.77670051968289811,-1.3993011261839163,-0.13307599214987006,0.41735859953582466,0.12394496026204051,-0.93509767537869048,0.018484564248602068,0.53094693733367315,1.2100062903564293,-0.9344056064289592,0.86359265957794695,2.2199412074756983,-0.23671071329889737,0.20754571448998305,-0.11808392175589891,-0.090367762267822865,-1.6944410988021346,0.37328658674333154,1.1707921651412752,1.1632559496475898,-0.50845374543067923,-1.7962576586913619,1.7140694130607648,-0.26115162104398087,-0.91161043940269726,-0.086598948178520055,0.12149168824338316,0.12644699255102895,2.0359663284187728,0.88530454918342139,0.21259457469046281,1.1059797434889636,0.5474782287765444,0.52942382776681829,1.1280715010376523,1.0267251432019053,-1.5069198004075517,0.76295121859383475,1.5204868763936459,0.34130569174391456,1.4461549734971253,-0.18927870483684797,1.4734892428519526,0.18687679429260343,-0.39351006843067499,-0.97860333325714555,-1.4772171614156819,-0.61500862775565246,-1.0766374102599026,-1.1250491477488465,-0.88266266688141204,-0.5949260205222282,0.49940474377852179,-1.6431512646041977,1.0223781636560227,0.49455653701550134,0.81526729268990739,0.18916067640909304,-0.65856923221454733,1.7561877643841697,0.30385458794986481,0.43931557057684711,0.55316232632618167,0.39262330743352825,-1.4043396966200101,-0.64112806947836432,-1.7567822034281937,-1.0375155836368961,0.10449800357503379,-1.113463384674716,0.77602466193320541,1.3014063363105117,-0.6014692490006579,-0.099148878197504509,0.16672811304618851,-0.4873018957944284,1.1560142606087311,-0.27697116489412316,1.2120462282289592,0.69394529319778753,0.71709946935245406,0.43666445892494238,1.0217738531110296,-1.4155440652317663,0.78379327933246667,-1.1761787146204312,-0.69332069328762957,-0.22057120909910577,-0.29393433253951912,-0.18319217067143403,0.78288008081757454,-0.68209041693600569,0.14796619395408403,-0.14635012328715877,-0.1852277974195238,1.7999620618129295,-0.0037152697332205166,1.2868563331290166,-0.60318631144708501,0.23379052629448588,1.0873002612207137,-0.67846807367550954,-0.40328806769564779,-0.2553849041350062,-0.44068202743650503,-1.0738217235506908,-1.321685719695938,0.5260187787837749,1.0106056822598943,0.90894308421751235,0.068235458953606776,-0.14053626786961501,-0.37791336061131614,0.59952569952450196,0.32543523571364524,1.8294706432162056,-1.061326017351699,-0.93071003128535823,-1.7556414904768718,0.11097087176973019,1.2801571857766276,0.79927641572843144,0.70094001638744974,-1.2366749256321072,1.7297286866360317,-0.44513161139693602,-0.86244939012487665,-0.50426853225945112,1.2608691665647842,0.51844384900099993,0.58817099526751615,0.25211521456468672,0.5618558189494034,-2.4567556481430834,-0.23004171428002324,1.1762778109607488,-0.049340486262118649,-1.8385187517377057,-0.6090924195454378,0.69095009640811345,-0.34115159730101458,0.88638527877913031,-0.73178327995990189,-0.84703973702093982,2.211832475644381,-1.0154731182490075,-1.7761779804651989,0.83835625909000866,-1.0439716868784554,1.1161077706997284,0.88241201055799845,-1.3207539033415687,0.3115761412016077,0.90393972423799906,-0.35345765050762923,-0.18218054016616544,0.11253602233841248,0.080978059113523154,-0.20988496566808992,0.22097431522629149,-1.9080735335006913,0.034137507296600124,0.020370500682119163,-0.98747066960167507,1.9735663780807917,0.67655735718730803,-1.2941650894831485,-1.6713238093659788,0.81761982346121009,0.408585207197737,-0.56706371546366607,0.19424297280234676,-0.84993838494640173,-0.39913079419602465,-0.57452433033567873,0.22962527955103382
-1.2140409432199191,-0.043661750329604759,0.50036588495741741,1.6901788668433575,1.6953040911915302,-0.42723205933219127,-0.062121169665657901,0.16749956172719577,0.55880301363387963,-1.6176474586502723,-0.9746541152538043,-0.15552927027981656,-0.90482669573521957,0.11425705112762433,-0.56160318615599769,0.24350719909362234,-1.1426493438784191,-0.44781701554792264,1.0191768953653226,1.0168803037328673,0.5150253374863436,0.33963981950751809,0.54437603565550563,0.33710521851076453,1.7507134875719272,-0.29435694993113704,-1.5316974839835105,-2.9453756150031838,-0.48469229789498419,-0.51775899219135657,0.3694874924661492,0.058593789865819867,-0.86342717201603914,-0.41290871045660177,-0.40565544320225461,-0.32064287367061856,1.2763439747952787,-0.73855289000043256,-0.023043407411882745,0.58829773885006797,1.9166808783472695,-0.74186515322528679,-1.1851778634654562,-0.38400901170588758,0.39801321672685569,-0.84820317861795891,-0.77336225143147952,0.5138708381947904,1.3931224001648783,-0.49774681689377825,0.5114114579478426,0.53451265952599547,0.73697760901853115,1.3537828603180755,0.8658104084738123,0.46168325931151466,-0.96829065234325928,-0.37312204248383268,2.1130111783906953,0.64313301565232139,1.1220569487631447,-0.00085531965303732734,-0.35675677989068649,-0.056009458291746805,-1.4992845855300951,0.92549939857322239,-0.64800554960534495,-0.19242794530029933,-0.4549582360857794,0.69639760838980136,0.6894931119579587,-1.1772449884857574,0.012999662068301792,1.4989969440310784,2.1035329726364207,-0.19859167803708802,-1.7380208686605156,0.88477764236006273,0.80868354881450477,1.3966999117985499,1.1746168215266799,-0.51354962038015139,1.4594023997941383,-0.11657886296504612,0.6559527274380742,0.51525907100504076,-0.34165748024822762,-0.41313979431221198,-0.035215384676913181,-0.60696837408098647,-1.5324217975455434,1.1704959064486693,2.1660609955068981,-0.152860414557802,-0.97960865930895746,-1.0147049382885065,0.98848393457131256,-1.1767047595233615,2.2319493272715905,0.3323779060724909,-0.11474785839536662,0.44565738988915166,-0.24165088651289307,0.68925765470086664,0.14487811969677553,-0.35991363220738015,1.2361895099236548,-0.34621769424247989,-0.92609688203810725,0.59652933356054305,1.2381074510699592,0.31173486874610384,-0.47094184203254397,0.22154801831221418,1.0994669354420634,-1.7726942598144313,-0.89322608252034774,-0.95718593610627145,0.61723543789390689,0.45010396314594298,0.39497226506230793,1.50162639289668,0.12387550431361942,0.28435907537556421,-0.92166332207096613,-1.3042729363190444,-0.25340914367435419,1.8866414457740726,-0.049551632193178062,-1.5350660425897837,0.69252567087301953,-0.97523494134033217,-0.3705366001008471,0.60577691043144033,0.82793583846471464,0.92830207930721642,-0.20121895657572161,1.9119992163577981,1.3334081852007043,-1.294269381598574,2.2636561242621327,0.015511168325659542,2.2394753657787652,-0.80215104343493859,-0.10721046105738087,0.93372815467891113,0.3181383088811871,-0.094856620784590159,-1.4950189655647848,-2.1266056669657658,0.044756500723983794,-0.44813949666712621,-1.2919115476259417,-0.25272865025923708,1.0273851318536678,-0.58192616338301029,-0.65639895881207777,0.36087138415016556,1.8484355251249593,0.039150883061161781,1.1779712744421325,1.4412613111916701,1.9007275090308871,0.42856145045673749,0.43613498233503234,0.06042186478859226,-1.9199287722544844,1.717590236239422,0.33038504764412102,1.223286076876424,1.1387860046908362,-0.039380618824167948,0.32201376797555031,0.079488738174659568,2.2598727593028967,2.4124607449629423,0.24895750056311,-1.8124171459828871,-0.76065562977264978,-0.31987139782599605,1.6005152422127191,2.3986911678499534,0.39265915286684872,-1.2080703401480484,0.92458651148311177,-1.0274000057019563,-1.7166772516045148,-0.29002955445299955,1.084861101937092,0.83700471960956069,-0.073678948346065767,0.85018410870271954,0.57073027063452686,0.64291634687471499,-0.0025842053835285418,-0.67668470032426065,0.67570147375541967,1.3315717350745955,1.0799207835330802,-1.2351910136687738,0.041129311692652444,0.65844584498973235,0.32837465600791516,-1.1006103487788448,0.8423189061359283,0.34056181809244329,0.21425994635495935,0.75140153597264692,1.4998782289198451,0.23487264374460753,0.7981539588015526,-1.5721710772588793,-0.25149069010928343,0.858314185263928,-1.4711788185237675,0.99735170226940739,-1.3732796160264951,-1.7183565219049408,1.322335537638059,0.66483048854705085,-0.24396801933824117,0.16061291936536665,0.58635406825066283,-1.3157453071240599,0.1259604829610122,-0.42077725818381589,0.74468926515290557,2.2184492070979407,-2.1939860399538813,0.99502175059719478,1.7024582907355736,0.074851389682715208,0.99851596686891164,-1.252889930761335,-1.531393722016265,1.3987589918278063,0.66644961358333366,-0.5780586208873788,-0.084773727654105568,-1.2465574996050377,-1.2626304105000912,2.976829239770856,0.016235936432351151,-0.034501356248636511,0.038894865348061934,0.87092018388984427,-0.89916174993346865,-0.92820615062453327,0.17280623759708244,-0.16993153067767244,-1.2176327620193643,-0.25223069847201662,1.247283714866269,-0.48382990034364104,0.2423222476940913,-0.5677226329779651,2.1452890095212513,2.0065288675015518,0.95601153859053101,0.92463460115492879,0.20845402846179412,-1.2626554513597716,-1.801667563814622,0.11423862386692182,0.44958394077412528,2.5876674170426011,-0.87341645338268681,0.091008665341694925,-1.6287348989989667,0.74291487975313908,0.54966800697452234,-0.53451471284325658,-0.71203721089460292,-0.29964446758190655,1.1629513347470513,1.5163071396088383,-0.67440983939178534,0.43414783099391718,-0.69798984826684018,-1.3924226451860173,-0.98257625901304857,-1.2477482388927328,0.098723611214858162,0.96321968248546408,2.4222615038956032,-0.49546982768451048,0.25306559217492208,0.68497307392578533,0.87857022546807451,-0.034402191091028711,-0.50250023322314874,7.910381957113484e-05,-0.19144296379861023,1.6860035697438411,0.20809681473590053,-0.68774722403240651,-1.8112911728686212,-1.293855359911672,-2.123567075539885,1.0403983440130429,-0.56464503127866084,0.025605251017092486,-0.2687748526999007,0.38143955628854981,-0.10146190661556793,1.1704954446376823,0.86774263327764467,-1.5551331502228096,-0.61600646675130133,-0.46184339569116739,-0.031489528845264757,-2.0292391889895613,-0.66355231309269458,0.5221984697099048,1.00251558980614,0.10703491216945139,-1.2793539863180396,0.10576723778372552,-0.53222978943326849,0.64144551389585569,0.38347676458293894,1.633490657365414,-0.14554081311533668,0.53677170211879788,-0.58839056132339129,-1.2231143251272956,0.19632371400546875,-0.4267135126776167,0.68171004470300756,-0.42346898827062879,-0.81761855752978441,2.841364759615344,0.30617662189325612,-0.049388285901065788,0.92017985399294588,0.087947589793645545,-0.23794853625537132,-0.73298209082938981,0.41592251354788307,1.5319057785510009,-1.2015746376891538,-0.47586963643191871,-0.41724847398049919,0.13610736751009261,-1.2075121586918038,-1.611654215596928,-1.9525305481080537,-0.76405233517318805,2.0884475029393839,-0.40805599855229169,-0.16056066848104802,0.53657408600545886,-0.45695708604247243,-0.11166595612750323,0.41109319468648747,-0.67159733226482621,0.44077684655374549,-0.50428174872944165,0.02468951189367442,-0.058782897294907564,1.6194316559510047,0.1825111265534759,-1.9555305136816588,-0.43869831613220489,-1.3261959533506935,-0.14722043296229367,-0.4892985803038104,-0.56316982903020429,-0.017693294643540164,-0.05298742212799968,1.1073935585838703,-1.6010443817793274,0.41910891371073933,-1.5483130907093299,-1.5611679359045771,-0.43147261950179444,1.3148538379110353,0.911042293712641,0.3319817424382655,-0.096087930763815582,1.1258926969865031,-0.4233564928420242,0.78303548615213692,0.5773911032399679,-0.11381302268102096,1.7168192305621339,0.36094949612635063,-0.71145970579562312,2.5739255880439758,1.0779851580851638,0.46692481632848848,-0.084436937290818706,-0.38330536654027553,0.29785793595070792,0.80348426536560003,-0.68816540310314755,0.73668572168526436,-0.030748371467424575,1.1854892336858713,1.5299417220567648,1.0527198973408174,0.23293354289077722,0.45517637637773178,0.99485967541161047,-1.0887779636918089,0.45543254133672095,0.81415573100335248,-0.93593512114519639,-1.2618755886441739,-0.24446215226235041,-0.35560919086177889,-1.3311700822914319,-0.67406881630013982,0.89930460952628455,-0.028009793669375539,0.31471832530832572,1.0913393041685091,-1.2250395335917272,-0.10288168344071835,0.62620790448170915,-0.45281192576127977,-1.9460987533555478,1.0638435039715635,0.12196733831342915,-0.90057214932469865,0.01992410733033036,0.67145771571048041,-0.32698644934880672,1.8355319085484403,-1.1462474758809036,1.8953944957381577,0.019341254002121392,-1.5290545812434184,-0.035738428053047819,1.0778955512828592,-0.39001196681896877,0.074694053927984977,-0.32218594863527866,0.41756431191079341,1.4951153463321996,0.14938498605102016,-1.587331995821087,1.1606389629988179,-0.82478941563027042,1.6645875022651053,-2.3175468347952521,1.2870342633433369,-0.27447300283754644,-1.6107279145342079,-0.0017603644769888221,0.24542259209282583,-0.19078078085439451,-0.87665801162648915,1.0817283803739826,-0.7024875820152402,-1.1359787845320315,2.0247098599823161,-0.29199463366785561,2.48077503433153,-0.85598653462821828,0.021112501210233007,1.1112785197903823,-0.42992354210398898,-2.2678639216990892,1.0205895406696885,0.33871243554427127,1.062265354266583,-0.79824512885016718,-0.59471521032318664,0.56148690296137072,-0.73120111855860959,0.05669402301576662,-0.90714754561828859,-0.054334695075015357,0.91248907916458943,-1.1985633935622091,-0.12065435736676687,0.40019980725025217,-0.32614267489035753,0.41161037754497193,1.2290334807021088,1.1776322779963657,-0.32434146670183528,1.3110236784669356,0.51053713787829647,1.6441955203706922,1.0355470626453882,-0.85359949563932225,-0.53548155066304681,0.38101933130718457,-1.2293764491075028,0.029676208620422501,-1.8742640945404747,-1.4631233673635395,0.91570391558733033,0.19916090755290247,1.4098455691866774,-0.11475280817447921,-0.39490429686853151,-1.1241822334757479
0.066235341091749125,0.35901790271724598,-1.6784370848944963,-0.53777152930145256,0.55684511992742836,1.6460427480997153,0.96719615993041397,-0.8004555183523997,1.0392660937026019,-0.50819446313551742,1.1600949907859939,-0.039851340373530476,2.0984308713472273,1.0150936295825637,0.1217450466707703,1.4515057271084395,0.10982892420235782,-0.12637419355836527,-0.23721643392878791,0.66804749146446585,-0.81235637056185928,-1.0367856816632106,1.194516847548323,1.016298010979714,1.0551728416708506,-1.1384327307470838,0.015570174907387572,-0.78132827187931853,0.24177564722758405,-0.12215301760238716,0.28242990921364824,-0.86263423795111582,-0.67569035819219736,-0.87125630127998488,-0.85523475051560138,0.23284273219741292,0.18333557212442561,0.83276446980120178,0.0090859618052368564,-0.15806548698302783,0.19418260913902413,0.50193397097527548,0.10740061097436339,-0.77618796043989813,1.4241402892373174,2.0221833951448343,1.0352797794164612,-1.2186861879931761,0.35394597925351112,-0.91758020611881286,0.34785627790724954,2.2817889457567633,-0.3791873548910028,0.45557062555220718,-0.68240027018250171,-1.5140692371091158,-1.3348232388831245,0.68747467605312218,-1.6291406697499682,-0.58690810919919933,1.8360096901192904,-0.86364536025964977,-0.62789957373049066,0.20639092946585524,0.61180551479945222,-1.0474157791530851,-0.2325318128555767,-0.38865913395796792,-1.0690322708148792,-1.2455038015799906,0.59379781269852294,-0.72511347619206123,0.011456674897300206,-1.6065336619681092,-0.69317769583387867,-0.4305404011857174,0.78707490562013249,0.91587887770080867,-0.98050234324671137,-1.049584231240122,-0.84089260810758748,-0.37855938593080746,0.4538359581679885,0.051463105300176712,1.6660724406397076,-0.69050701988560359,-1.1821328196830034,-0.75300690425829064,-1.3358788722057484,-1.1156720079764288,0.80047618253456043,0.80164989987070789,0.26386554305339988,0.58353741392873792,0.41027432924078816,-1.8158126946033926,-0.17702931564544599,1.0191060854274545,1.4107535728441505,0.95605062223754456,-1.0434617535485318,0.29333089783532523,1.9316675905277916,0.60771105959650573,-0.27787637952653355,2.5880886416429223,0.27262637112015681,-0.44137280986263122,0.50099636308690454,-0.53121271648012758,0.83703894227574815,-0.71617252627409855,-0.52741792882741034,-1.7413366227629661,0.016951018311239234,0.16667233792995245,0.82979200506178374,0.48564460632731604,-0.37623746966251631,0.2274073070278157,-1.0124951781409961,0.48699655708193079,0.30733677498376244,-1.0153239148596536,-0.36212146988520511,-0.94671168139500605,1.4226330027912271,-0.64478969655279594,2.4383485091201904,0.36700532329141722,2.0609311482559551,-0.2000567022121045,-1.0285496653056934,0.16200188298946397,-0.99565685507371726,0.23374913325119093,-1.8974414944882358,-0.31198829712056447,1.0976865435345908,-0.092536389920192003,-0.88156022762889208,0.64569133846625093,1.5300237927749933,0.021043381547408434,-0.1197031400813779,0.19059091717410848,-1.1743616058774649,0.27138299131237509,0.39325120188131563,-0.78976484146012915,0.19533281335707139,-0.81550654895927732,-0.40829125443578312,1.3449496826986687,-1.1848572130515391,-0.079634245415787619,-0.68603012078624348,-0.51916446818197159,-0.58957003005801778,-2.4614649012134318,1.7420997156312474,-1.549927385884577,-0.50215741596445918,1.2592424254115393,-0.27139301130475263,-0.70047181597442787,0.56316920855447639,1.8870095712208788,-0.9656457702738479,-0.18500339736645582,1.861135824160582,1.0542618903323837,1.1268716521150435,1.0229440557121847,0.47367390469152909,-2.3351669601260268,0.43798993901582123,-1.3971188210166785,-0.66149333253377007,-0.2557287280597268,-1.2160455199974842,0.25787807093565529,1.7387144162519217,-0.79328172371587902,0.1169747863797292,0.74131037743065265,-1.3640712901473797,-0.0026320865147777457,-0.94938471382831757,-1.0770298937390501,0.41373286586731339,0.21814993797336685,1.1525205230747884,1.4000799269943685,-0.87156321559542937,-0.2728971411008283,0.53072739828288418,-0.35763294522486894,1.3321194580175739,-1.0752407275653006,-1.2606084150803885,1.7491839044844355,0.18536296335159133,-2.2312477412791836,-0.20753992820144593,0.86071322426092867,-0.80635698234211306,-0.60928371357708677,-2.5745647093481168,0.59687085821333208,0.23875212370568863,1.04641285614072,1.5303560922370327,0.67909439563086593,-0.5222015730676165,-0.36086324866148783,0.018230081782393909,0.99081703161239709,0.36246034324143228,-0.676702176399678,-1.4446222951737393,-1.883708504915993,-1.5890979133971384,-0.79263731550807515,1.7336814978229627,-0.47173169870246379,-2.3791703597514391,1.0225753173577772,-0.36040897086199664,-0.055179380068132874,0.27785924263082562,-0.26838258152775224,1.0287755920592538,-1.8900249511365264,0.94754071554987229,-0.45397839511268179,-0.2176025238391624,0.6232706152744879,-0.15852873396092809,1.1995553346303178,0.0019398213681078508,0.50894522293203226,0.34083031776674638,0.56860754570684158,-0.21020696899143501,-0.13884944633872093,0.36940147451939676,-0.89300325690548032,2.0772138465837657,-0.39114175751915731,-0.51667563976422914,0.15693178603847457,1.6970342900205844,0.51285879225663533,-2.0742682675212869,-1.2166223013247794,-0.87784442818603492,-1.7900411541014172,0.93596731310602976,0.28774210076378742,-0.84406514695239254,-0.061339150868425056,2.2049149154706775,-1.136543648021803,1.0727318191379904,-0.29138492343841715,0.80626904413512845,0.68731171573452132,1.8858992554099083,0.082636606607941296,-0.48857326677469787,-0.82575406747757429,-0.63492253530371034,-0.42396696587974009,0.89422547761869142,-0.95120996158373472,-1.2902593209827193,-0.56233452306788856,0.12730293302581791,0.72203046116564829,0.65681155599011531,0.93035481431120826,-0.30397789029383748,-1.5852030579392782,-0.26101069003244598,1.2854197311337296,-1.1579884937039668,0.23124962450686098,-0.13007502459370215,-0.38622504956271669,0.83210110436554641,-0.43890322395999004,1.2478108423558507,-1.1460499624084233,0.92921063316143238,0.76762950182026835,-2.0064054855910896,0.99515964016121317,-0.31648506201684129,-0.70675289342843639,0.13776715427736314,0.62616129456325709,-1.6517643462247704,0.19628498297699207,0.19392973842650815,-1.1823382413416983,0.51533201645969695,0.64351911341367074,-0.20360757876642235,-0.64802584864874535,0.95684765636136793,-0.28513119254759672,1.1107594700661003,0.41201130671472908,0.42525741101190728,-0.33446532149864111,1.3633090035492099,0.84448372028843632,-0.92086169689004782,-0.98095071477207585,-0.12326236843496302,-1.6066486803976061,0.77205458304921948,-0.24346262772321478,-0.52387238312479478,0.36080532254756148,-0.15028152001293152,-0.48463643072209983,-0.39992218845226735,-0.2734112540705475,-0.78512547024584578,-0.09452219870899746,2.1550554297579079,-0.55388146852650333,0.29834897360515023,-0.8448492131893649,0.81913844723223594,-0.43668860245879343,-0.093397942067602227,0.48949575719882815,-0.38792441952459722,-0.15213250456607139,0.075566308320480086,1.494150148508036,0.28718976220882947,0.24195317562224145,0.46106626893943931,0.84661861506372849,-1.9281720344833291,-0.4292915350130711,0.80568751590337617,0.0065162720417523932,-0.4373210239239409,-0.48590272454606193,1.325791992142846,-0.47787169291606307,-1.4952559936202154,-0.40279758723890025,-0.62326454974180401,0.039044245531865272,-0.79709866172085042,-2.3101717273839841,-1.0314606832140263,1.0497652900906118,-2.0704014645663693,0.91796291650488659,1.356808455997681,-1.5525812181444882,1.5007855640023493,0.1540688313519889,-0.35562587738322815,0.1804598161229978,0.011362033467032441,-1.3888123174901057,-0.25667896940214335,-0.97560729011478897,-0.33844307346441443,-0.21062987466446323,-0.21568818757418878,-1.2424442392341557,1.298209200756653,2.3585964615006323,-1.3312075543321173,-0.096515565135157161,1.344168994403325,-0.10219945416737841,-0.88559098607584708,-0.66810167756999428,-0.45825792342914862,1.1530004677091696,0.74019010703610189,-1.5707799760348868,-1.9784237279648329,1.5116382483254169,1.1055096853257986,0.82236898903374633,-0.42937932709315468,0.55427592277578264,-0.16223758833255142,1.1541846779941047,-2.4948704012866778,-1.0365703460320368,-0.6770452814802862,-0.0062544761667542728,0.92889459026497101,0.46677335295770978,-1.9221140324104966,-1.330714694789175,-0.41874731551113681,-1.1640697180978816,-0.0089563773439559867,0.47613081207839592,0.22379324462988417,0.925591874983274,-0.21222411398247559,0.32202105016750998,0.77924545565179537,-0.06411975618998747,0.92183180941462539,0.3701652452549789,-0.79949621912378699,-0.29857777921910439,0.59720892341585741,0.48480348006753832,-1.8206619403009856,0.62540760589654187,2.2491181315197157,0.85798471619021599,-0.56501582098784564,0.3265957578988794,-0.22450356234850083,-0.16144047538334133,0.27985679446347461,-2.6344259607055971,-0.41061499624097653,-0.035918728750013583,0.18247428388987261,-0.41561641590723636,1.6503444359792607,-0.68692296727707125,-1.0782798483047253,-1.0028375013442015,0.88504803164046852,0.3889474800101787,0.95760399286806819,-0.37939771140470896,-0.97279355870761608,-0.85566100413108304,-0.26539291789022973,-0.35458526959360626,0.62783913112536249,0.69745599455280971,0.93775440228287099,1.210587669857208,0.90843696892450965,-0.64389873107662665,1.0038955049010876,0.79327896185515934,-0.68906128650146803,0.82442330090635174,1.4830406028157164,0.87079420755598869,0.69630017106578701,1.4988001126226451,-2.070638480422772,-1.1233787924840124,-0.75967699807007305,-1.1557211030429744,0.05864431511075445,1.3105572669220875,0.54243334159481504,-0.24133845302310444,-0.59124290085714548,-2.5420772689234763,-0.98903433545254649,-0.095359617375063321,-1.0422220155950357,-1.0526010506749728,-0.13735513702219751,-0.25830999427848661,0.63583588839498251,-0.57067683893059973,-0.63780417297671221,-0.076543456985590841,-0.86866801584505116,-1.7454208657126575,-1.4712550735071594,0.49003287877447371,-1.741203995632012,0.13473527793540155,-0.26306352401104205,-2.1835764016941703,-0.15531879471659982,-0.37624108084768021,-1.2635684900491477,0.39405074669676798,-0.51052804526656337,-0.87305075604021687,1.0660333383237437,0.60559985631690283
0.61664217988902348,1.2837413151864112,-1.3370406303376634,0.20430910661753712,0.52743706908885357,0.85613044344181544,-0.82058113128939203,1.6265495506444239,-1.9987989922370524,-2.3504154087392695,-0.19732142170245437,0.90056641175260843,-1.6647093776313493,-0.42944745885789221,0.48572348766545576,1.3973445384366894,0.50642349944806986,1.8474428682628043,0.72554170033881926,0.082149599506821366,-0.2649362555519329,-0.77733374551756251,-0.90466576972158552,0.46800350768015542,0.13174440138329685,-0.12501319005671088,0.83902641710781733,0.089867940452805911,-1.7188212064168229,-0.61841863396540286,0.60075193534903437,0.31773215686545814,-0.66664324120328478,-0.28142856324710824,-1.9565756544005029,-0.21801888634713881,0.27102945119360344,0.04609947569395216,1.7527287259528084,-1.0592090239093055,-1.188131949938535,-0.89366949089394443,0.024501295370571875,-0.37670676469370062,-1.7500374938529366,-0.020471622101062528,0.029255014900862228,-1.4496753539404583,0.0057498845259160228,-1.8493778573563147,0.42222584067300695,0.24726640273329784,-1.041532906627477,1.0080495534318736,-0.60471449335181282,1.1378603360153439,-0.51046891607883593,-0.33879131932652951,-0.52291451982303228,0.13090135187946289,-0.87002250442674667,0.20842655672437996,1.9554862850330732,0.22905109792296846,-0.36300330472744796,0.039702845712423787,-0.72436276372129271,-0.46040156793672721,0.44552143155577356,-0.68547335043613578,0.42002279585343377,0.59124894300523123,0.38494460341899267,-0.16852098458618606,0.53352833446555759,1.2189523675726852,-2.5355920074785954,2.3629043470684845,-0.44539754855102009,-0.85763384731663317,1.6041548665873389,-0.20068023327037612,0.87413307339248636,-0.98644833194004389,0.23060638020734445,1.1905212757135415,1.0385233659200603,0.20114838071267885,0.78442178645611982,-1.010070981325734,0.2714269576137005,1.5253663432715467,0.0024840340471213259,0.55674922973654106,1.1278857449652646,0.38604433921908532,-1.4705510344871759,-0.34289979093611045,0.12231459929116442,-0.73824482620328136,1.7622288107017718,-0.47451653561903689,0.20614015008244876,0.17761038674099475,-0.27723625945792441,-0.98833003865157454,-0.93353240823564998,0.99212001886520607,-1.101659801930978,1.6664497646291236,0.65164938770729797,-0.51100212374114751,-0.13421999068008517,0.48479573584924585,-0.61086925434090356,-1.3163374298382529,-1.8905566254932602,-0.55485482841233003,-0.38728510823134948,1.5976529938046367,-1.1664712180329282,0.56355580552500695,-2.3629890666175184,-0.34385624538424436,-0.90171445466174505,-0.4273851105195986,-1.0898214292155952,0.88940392010591662,-1.4092301154942428,-1.6730319452173974,-1.0071104363141359,-1.8332674393228643,-0.11515624914241537,-0.97998944801338272,0.646793476461757,-0.19967199641914851,0.49027981766042678,-0.067140358978691403,0.43063083605886504,0.56093152280629122,-0.38754652527689987,1.2324515279078825,1.7028228009680049,-0.32334895660412871,-1.4733510739420805,-0.98820215250917365,1.1354788094272956,0.51995049200761023,-0.96410097981514364,-2.1536672313783618,-1.553785271047373,0.034954586490297909,-0.25998886654043718,0.31066863973415154,-0.14929696595045633,1.1600343038006973,-1.3573894913739735,-0.21222637783374237,0.11479869596396856,0.90179032900812173,-0.30993251517246001,-0.02606141098778382,-0.75485903350660333,-0.37719545098079782,-1.1712686897627076,0.40756876987335561,1.1301922964020186,-0.53207230829806429,0.56176764741974705,0.56206966824899207,-1.6333509633338146,0.06518712105184192,-0.090747556823449177,1.7913481702476513,1.1577940260044404,0.88836316383906622,1.2292995708851995,-0.13418930606178403,0.63377550644837222,-0.08467762486262409,-0.42090012511030528,-0.10153140374501252,1.1234830631758823,0.5121496920842683,-0.72989027460707667,0.49408037074574707,-0.89203117283804612,0.67935651767513205,-1.7757957162906621,-0.37745518462994038,-1.0074120575705687,0.86686074751093423,0.93121787608548146,-1.4194009364838776,-0.18538757287437729,0.22734606228286761,-1.7734492072677035,-1.3687707673334264,0.39794325494666821,-0.073975902573370195,1.0675017215491989,-1.6841934059901118,-1.6871377905760701,-0.63321358393424443,1.4432873198541669,-0.089047621963214849,0.81775171897693044,1.0356807760023465,0.42356284971339564,1.6665063021046509,-0.90818273207597577,-1.1389856441319477,-1.0821184478825456,1.0049353038359603,0.87769143756111789,-0.65351903096053865,-2.7121261556757044,0.71882725372449607,0.4749561960653475,-0.27824773977987777,-0.94787426699118604,-0.22692629787087354,-0.57873751645120353,1.0970129007403124,-0.68630643855396545,-0.046536275911368941,-0.93058013451800581,-0.98700830874585932,-0.83814554002754604,0.026091867158672458,2.3324269959992439,-0.3345573146949094,-1.3153311617306602,-0.33637108672011884,0.26672376609112713,-2.7803925111277494,-0.39680757600579197,0.77289793788712058,0.2186149458778508,0.51784574052320154,1.8517215322601526,-0.75598141653475814,0.77138551185809878,1.2339806063693424,0.0046260285077351342,1.2538928516293326,1.5995970273236202,-0.51030789143463429,-2.2460991459621247,-0.60213625597659881,0.22937912222515944,-0.35980433096145814,0.53108078427689431,-1.3335489345643525,0.64137982429659868,-1.2600130447009679,-1.4499972713402038,0.24595207413527362,-1.5833293373543202,-0.27792980007863993,-0.96345041362291006,0.97182459413072053,1.4795276730487357,-1.1746664087449108,-1.4806733235417995,-0.087781465562719638,0.93062011863506022,0.43108591126255957,-1.0889180837958612,-0.21341673337205802,0.45742120784613954,0.7831519915423043,-1.0522244626699213,-2.1756610066730957,-0.9275194452815898,-0.074969671276786054,0.59324220201038347,0.075335483868444242,-0.37329763582027048,0.48819068309487723,-0.62613498319540506,-0.68803620472229632,-0.7752983600526373,0.16198315817322845,0.014827625754371323,-1.9526254325792003,-0.49809226923894567,-0.095659041676828718,1.2696909719573657,0.096806087992934817,-0.098355535838749605,0.32795043470623497,1.0345656758332273,-0.14642060848405322,1.5708972809200379,1.3572444824492083,-0.93309105759152988,-0.82439433952877494,-0.68306706652585936,0.10327482778155517,-0.45934637654898441,-0.44167189160906978,-1.6248503115906414,0.43485497241682375,-1.5911236566761564,-0.15207066785061973,1.5044660256463542,0.8517079679135251,-1.0014404268312131,-0.41317981245992136,2.1344759462618321,-0.88515498810322091,1.1581685631682517,-0.43721524803727907,-0.61167996262556301,-0.22118246132794606,0.97026715192974911,-0.1264357688995173,0.75706216017828443,0.17012296946345737,-0.6535086385853548,0.58845883309443014,0.79976174322526561,1.8089496412340289,1.56393950713216,0.13724756229803636,-0.10258005695735725,-0.57851357234423639,-1.9697597248657468,0.79746413716201958,0.52056844965037652,-0.12485272985707642,-2.1248642496227252,0.27740700124744155,-0.28978201949498067,0.42993685570431373,-0.79908087789400883,-2.2810828956463509,-1.8484876594073252,0.1746867736576605,-1.621939892667889,-0.14976402262897875,1.2237153141053292,-0.58661126904743333,-1.1908919682444754,2.2795696946207777,1.6039093773345738,-0.20257949705911066,-2.9079451166936701,1.9520281748409727,-1.2058937138836954,0.65413951371041623,1.1507826036090818,-1.0366125046923318,1.8645795612609681,-1.6207449674134635,0.8335817829748553,0.87989276872741051,-0.7556802308460987,0.57011095836482506,1.7313645632248327,-0.33660880758952044,-0.20732549017599305,-0.52509479538293935,-1.080207757326628,-1.7955179028179176,-0.30740252956996245,1.6068827142919437,-1.4277453597364771,0.68976814748323334,-1.0126814573697216,-0.93837612447766605,0.78837134130399011,-1.4602304682092744,-0.018753996659629332,-0.39741349222887945,0.6593733430488854,-0.43145683596470802,0.68608217245490244,0.71855825357357539,-1.2984142981839357,-0.36385043991675819,-0.17091695362938938,-0.25292441650606806,0.38351447615385686,-0.80369297638699144,0.34485533067308516,0.22824330366737688,2.1977589802337398,-0.5345912257729053,-0.27698969437970988,1.1347326239479012,-0.32986945854737415,-1.9496157227441968,-0.97526496217397673,0.63493615338493781,-0.38997681583978233,1.1999041473876162,0.38034624112792653,0.85278450102924175,0.78765682464106201,-0.48118627538650655,0.35050291013635781,-1.9275439745832466,1.0085154545671859,0.25849863620432911,0.75517652387761469,-1.7746882999378282,-0.52381949006939676,-0.55294703864201178,1.0365391558813017,1.356159400162847,0.96604421491390347,1.0096824188475877,-0.62772636515948965,0.58809890636215367,0.12222793983355376,-0.37455720352431149,1.9547115152933332,-0.3315997719455997,-2.0589514781789968,0.83191965754608843,1.1760331883994541,1.2727908855146124,0.45071337329813627,-1.7868538055725407,-0.54852406891998318,-0.27320386754949699,0.83276566674574048,1.547204269576048,0.57084902231191903,-0.64787463821106184,-1.0935900071118037,0.60109232336321006,-0.091424535524740641,-1.9545424271027869,0.9833084732079469,-0.77601339245961509,-0.92244804114715229,1.8632971834254413,0.30713703222976396,-0.15738480278447151,-0.81815563942527025,-0.36842201730571833,-0.07650939504416672,-1.2639519123870797,0.45916364660418107,-0.85237765089269979,0.75924795457029282,-2.639022409962303,0.8471004552294783,0.911613459115864,-0.53109801329307715,0.13407939050173145,0.89842452391843264,-2.153008700515687,0.23916848285233389,-1.7325146702135437,1.5516501376966476,-1.3425759566967215,0.42929438234380179,0.10729706672034695,-0.52348450744632402,-1.6067248689393179,1.4103848981063551,-1.4716967339388038,-0.80684052149895091,0.86706632340143674,1.9680316389296626,-1.6342709690969204,-0.83824648190728723,-1.5509070478271927,0.44339854255317085,-1.6925580492813725,0.11564114623791666,-1.5279187296960617,0.60857197571142496,1.1090518827179634,-0.70764472659819821,-0.12117479466648354,-0.3599485366899749,-0.14003557764953714,-0.37140358947833019,-0.32811329726566069,1.0631667061443317,-1.2959164406164898,-0.43607012623482333,0.073632827180687324,-0.82229997711123226,0.47452112939397001,0.75851623359865572,-0.7338149703675505,-0.19474808820611941,-1.3904697509282584,0.18834030286300218,0.7299819150314425,-0.010603699448630724,-1.2847650908746842,1.1373372984284815,-0.41320824650663368
-0.51110789194968886,-0.39318473773648077,-0.26483809643801248,0.64397683883919732,0.022022912476507533,1.3697847516257298,-0.44086774860752476,-0.82261459193902275,-1.3692881431689925,-0.44291979728183006,-1.0753607417378448,1.4947268260420232,1.2392367072652097,-1.0772837524229093,0.98658442186507089,-0.21487710061630452,-1.4581376700664688,-0.37869451694313194,-0.33078037336433663,-0.54890770677009004,0.067051785939731781,-1.2422437266384474,-1.7887072264191946,-0.81977534974107358,-0.86815028343010747,0.11564813818793791,1.2372155100240982,-1.9375993717472348,0.80320850982041125,-1.4292824431382096,1.4368529902486611,0.5841027042066198,0.16559614156166885,-0.87449681652275846,-0.49483047439363148,1.3774793895537809,-1.0634543003170589,0.39060625486384748,-1.3484821344124516,-1.7584391368621632,1.5394797013128863,0.3076004003178141,0.21168675211757787,0.72280038371272559,-0.65743776854066371,0.9087441960695346,0.56997721592795458,1.2464256613949722,-1.8761362227938627,0.016900277259750171,0.29114621304681787,1.3862420460356815,0.00060086907339037675,0.71309050881387948,0.14471133536695932,-0.84728032777296491,0.14712869921720639,1.3959407421093251,1.1448591629687586,-0.95153500960531867,-0.56566074357879959,-0.24497841509496016,-1.8361253910134219,1.3255840738710667,-0.55136143747533417,0.72741408349492787,-0.17947120193351099,0.98107044564355772,0.8787862364680773,2.9606520098435731,-0.83950211524078,-0.51984479945151452,0.2990605069792599,-0.076045668499879912,-1.5475955731832829,0.7413137378784399,1.7851983330624976,1.3648735257576137,1.4400343394272141,0.6576532378144565,-0.19779012059163342,0.088584667003422532,-1.7386341318807126,-1.8692068778792261,2.2869210823324657,0.69753512872054613,2.1687784268573567,3.2963551929153394,-1.1584430244361468,-1.3243558694937474,0.91343672752524052,-0.8644719267478348,-0.11505296749435445,0.11535647888999746,-0.48674569133005607,1.1261822488511319,-1.7084504278802566,-1.4913811182729906,-0.7424789916319986,-0.77947367824068059,-0.67573123389889056,-0.6112587579767822,-0.73852811583970002,-1.1457415218294948,2.7869525848674135,-1.8313057441668785,0.7126449714600166,0.058331483960825589,-0.3254177081084717,0.062363493826236856,-0.92362822818588486,-0.76314934858685057,-1.9406456154441998,-0.30425101566013235,-1.4946927749599448,-0.5733744116765862,-0.37441713186621767,-0.027661623528235715,0.11264774226494145,-1.3640567643518635,-0.056293169059452565,2.4419933900079163,0.63183578516427796,-0.92477879305060662,-0.01396765332182476,0.46843108818714574,-1.9979270585741815,0.68746756358078431,0.21777222011967046,0.84156598817856976,-0.73045844970123608,1.8567385325063588,-0.36521925399476007,0.35323268050692802,-0.21619753387292151,-0.33599305350563563,0.37020597315455689,0.54453073652922801,2.8574766246268064,-0.068304071027747951,-0.51849724552393617,-1.681567218918351,1.4493539883919,0.3336153163816783,0.043860534646613068,0.31426085753330735,-0.26714084779081554,-0.48192106125565032,0.34650455745689301,-0.30011301458732537,0.92026818485374906,-1.2144583437970831,-0.5005778272871878,0.3500738859574315,-1.7003848941561082,-1.2800277680891679,-0.11251935092396835,1.3695671512209753,-1.6144587404468838,-1.2237276504742718,1.8708303277078799,1.1436639921773728,-1.5025439425944982,1.4188312879626199,-0.018723679283312353,1.7551520897817914,-1.3909117561845086,-0.65538355323158326,-0.63665315670180689,-0.98621060919961112,-0.89798644747395351,0.24138854853902739,-0.87662584842588109,1.1834081047304661,-0.76897919747959997,0.96660151897025492,-1.0058590624187926,-1.5128535918331987,-0.062724587296937556,-0.4411059054600156,1.7551240331813092,-1.6319418880553329,-0.41720486699372655,1.0708608906858215,-0.31749830129063938,-0.29354857867516504,0.45234499758854774,1.8463650143334047,-1.250446766829826,-0.53208840895323184,-0.92146887027206481,1.2492412818808207,2.2224396738566163,0.33035041651673019,-0.12620575050966529,-0.46080419790903032,0.94150758891947983,-0.019929852472000534,0.92804419351964451,0.5858641963880421,0.67597853994136103,1.6670567288601372,-1.1683788683112935,0.3908199228442118,1.3521713773891761,0.12160764361015522,0.052666794806836545,0.30151704625996528,0.38762297028655784,-1.2413255425839527,-0.9045459040545506,0.66050689135776541,-0.7666784738644179,0.79240588699353864,-1.1263135059566232,-1.8803252310837915,-1.2349820070439403,-0.31918559058748874,0.18938055908608228,0.17284506865195146,-1.3316054400417883,-0.89641224585390622,-0.52235089740119578,0.2040783324756299,-2.7522760702479809,2.5605898943904535,0.77592077140381155,0.15890540576513673,-1.1981014411120943,1.2750265967926284,-1.357730328914738,-1.1113134158253339,1.9594655444758011,-1.747315806365443,-0.46331951158395296,-0.37353458428908465,-0.30597783001887818,-0.2641047558856745,1.2609045910934988,0.48239151327802815,1.3420760547108774,0.52754779471927138,-2.1220460195086339,1.0031766834845122,-0.47444917867089881,-0.98494180912873952,0.2427242206744073,-0.99561282559114472,0.33559557616269131,-1.3102457849439195,-0.29948671510734098,-0.7153889892063704,1.4185073557794912,-0.91966151214394476,-0.21862221641290619,-0.7025475468083886,-1.1401981366352067,0.54161735326145333,0.61296947842985916,0.32640248358078677,-0.52411924061173398,0.45143107730310006,1.0509070721656164,0.77515087466956012,1.6920718009901532,0.75789811484650083,-2.0668900033081972,0.81537761210505977,-0.59625722651725033,-0.1388951536067668,0.95196615049101774,0.99288664687899997,-0.92663961793459715,0.84980004247003671,-1.0142188619254631,0.59254241677397212,-0.75604858153509902,-0.28753958650959061,-1.3482067769633097,-0.9822712044253149,-2.3221902699245667,0.69781158463145443,0.09859048094783919,-0.8912191077051953,-1.4094149073911075,-1.2094739548872737,0.76146411405491876,-2.8072419730383698,2.0706241280122533,-0.84298006469140319,1.9016467981157434,-0.43141832103170058,0.67069008126414131,0.69784373682167333,-0.98538652684969807,-1.9409587309042662,-0.19897038374578369,0.61131990170904116,0.3581715624514325,-0.68001329226885199,-0.95091424852567152,-0.41529273864329525,-1.3663057050222653,0.16749657765610551,-0.63244023568292673,0.36665892481420131,0.10341466346021058,1.8642143722358957,0.72761080503685149,0.25799695626572561,-0.40438532159076734,-1.0076348669264856,-1.5400909226571147,0.85324753319543212,1.1042802539179637,0.75913183579356613,-0.11269682458287054,-1.4550087021072271,-0.32378835366012154,0.038296000795491079,-1.6078093168804091,-0.72895820549128576,-0.29689946911115017,0.85764675693408832,-1.778828624898289,1.0608726652999583,2.6753424481314689,-0.6325460811649769,-1.4292630115351819,0.019626834128481974,0.050126399031402556,-1.9076478435383941,-0.32985045197783242,-0.25609911502490307,-0.71697838268639535,-0.93536888605483948,0.080142137206348663,0.4280952479538046,0.27190744917733572,-1.2042165419211042,-0.83037878334346593,-1.5157335186674306,-0.44301489040783104,-1.5623727181714062,1.9126227415850592,-0.83419205444303968,-0.81504384851475831,-0.33687380574668635,-0.043935852699928356,-0.3984658291037943,-0.11177649933688476,-0.5322536405370345,-0.12903703329274638,-0.52441492752429109,-0.62676704601409161,0.6804277675252669,-0.35374637110524693,-0.23207982157218224,-0.88536042559661021,-2.0280884995569703,1.1682508490956751,0.5018768832814936,0.67315859535221267,1.6603754914277842,-1.8553315639527177,-0.56094494746972745,1.5732024042221278,0.70156642740577713,0.10447476170273916,0.47774880589893792,-0.71342195114368268,0.13528193056791674,-0.17990627582114666,-0.11078179855898501,1.6316537228095982,1.055950162191478,-2.2912101446264601,-1.4251563433030197,0.40152382084628407,-0.83971705387799522,0.5356728788335462,-0.58045679377431403,0.80789784857366331,0.90917148339204834,0.16622737530230119,-0.87596684497580901,1.2930604256982348,1.1246669772178917,0.050351455802702588,1.0574468084396234,0.59595308304125794,0.50347267609905932,-1.3229434049422293,1.3060958089024901,1.1410303723898731,0.058092774923142909,-0.16050294670495752,0.76698510523260488,-0.03594339865749286,1.6453257238113346,0.27162275816050219,-0.49064470536975163,-0.96271202276621504,-0.628468943261833,0.19537362318485463,-0.62052683685001508,0.79713285338655249,-0.0039546151034367399,0.30750503128312207,2.4461385199415275,-0.49795991709790599,0.26084838232253243,-0.35944451705186525,-1.1121184180021604,-0.18480021386428502,0.17900958367222752,0.059024076646316634,1.314642494468544,-0.43539699784894081,-0.86706992096286739,1.5672800614429421,1.0494572158891036,-0.6544476362317756,0.23464801995696261,0.61325987619757716,0.036281040981163665,1.408204620152514,-0.77295139326410744,0.78141430231100206,-0.38326087195456737,-1.0319257676735329,-0.42575915699006756,-0.53267956025202223,0.06277252943688133,0.1450744412707318,-0.18656351203376748,2.6764490717154592,-0.299700040635271,0.20261576935183731,-0.76758074134713683,1.6020925414365816,-1.1732164887968188,1.7005990057824223,-0.18667008665454149,0.12742788998759666,0.65319940709055246,0.21691146173693288,-1.3039540882538618,-1.3758641874683744,-1.8850573707762444,-0.21648636083043296,-0.12911340395594337,0.10670264025809022,1.0803928567119305,0.7748495768644007,-1.773203954584111,-1.5064645006916919,0.36508132512470776,0.54640242585235066,-0.052563487920657424,-1.324619502784212,-0.49581006679927281,0.44695206970591866,-0.19093474795398807,0.15179668362837076,-0.19306271058242799,-0.013392267439310455,-0.67572064945773613,0.3971643780948978,-1.0271271568221851,-1.1232552242599969,-1.3486775773236492,-0.10358425989753234,-0.63114839788508026,-0.5881946196046004,-0.035718676085864674,-0.27731621937307643,1.4245356007886871,0.24151331825650982,-0.20827681769065098,0.24532644404777865,1.4551990005049811,-0.40578329972820609,-0.47216649385953063,1.204254715088084,-1.8944936186287715,0.29131341679540468,0.2513098741253954,-0.10833697963956006,-1.3333022235393566,0.42602447308187313,0.19347005281412027,0.37656744826677108,-1.3494785649284147,-0.30456150224837131,1.8126430883817359,-0.44540748490950066,-1.1229067001291912,2.2409216848400018,-0.63050867431848412
