-1.4813678807842556,2.1108626168865499,-0.067397057658461892,1.6096138912997195,-0.14595854793130367,0.3509596599823826,1.2782966467708994,-0.31105853126454636,3.0234622257105492,0.58088394556743528,-0.060805719150534634,-1.0198760901897537,1.5201268367542256,-0.47168434808109433,1.9641530280348811,0.78415106171233229,-0.35895829766845477,1.1622710618802146,-0.49912062559568032,1.3316538477000281,0.7004905196252591,-0.15364959052843497,1.4511973206559052,-1.0673737232693319,0.83257142940660234,-0.052708176727756871,-1.3634538669141774,-0.5620297513542365,0.5556188468967852,1.0049519131873219,0.26928424140077972,1.4222636689377499,-1.2706313016276203,-0.58907165935930894,1.0897065518605145,1.4939064793248544,0.18382677089439592,-0.86348864671745806,-0.81651145459159846,0.17338604493152776,-1.9757969678772584,0.42860729592706798,-0.22759040107353845,1.2714980699625831,1.5139058265049692,0.85531027857022568,0.4838520251864466,-0.47638854086927956,1.5395849361112282,-0.21151779653190053,0.034463817063640274,-1.1050121276552187,0.016956631910635896,2.0027384808225084,-0.3862740671777084,0.782638691349267,0.98611023182366564,0.92676051653767655,1.15925819689415,-1.5153898677803901,1.71350839157728,-1.664527263477817,0.33785629977835546,-0.91253025952652056,1.5837918360699801,-0.054990683873646813,-1.792326558954227,-1.0842673635012421,1.0142521293017148,-0.4291826826510895,-0.74048192349123043,0.24080599449441931,-0.18623017432057659,-1.7262657801258106,-1.0169326639081986,-1.1948341117280876,0.5566370497186125,1.1243097167898826,0.16889185317172772,0.57550749439318616,-1.0375517513327355,1.0908213010203125,-0.5406751706014481,-0.092256556223956732,-0.72664453203873103,0.60487407668561932,-0.27711671196968535,0.5880628631620991,-0.61903869033856029,0.24681032739993297,-0.40166357224793975,-0.43845145313916756,0.29814540581435983,1.4317799864155445,0.4852612127924178,0.44262173323988474,-2.3313205617415469,-1.5777055516064691,-0.9436847682846341,-0.33336230070917833,1.1439690917244261,-0.029837266245041932,1.0733524245321955,-1.2564486357103537,-0.72476301367525608,0.92455756856897575,-0.94727374433446843,0.11871771868062622,-0.34955387754757278,0.33134390596546709,1.2925856481236191,-0.73121110701056291,-0.038523181785087061,-1.7455855069284987,0.54173799534952505,1.8494972813181978,-1.0636847897288151,-0.036377238660531351,-0.379613107527978,-0.31035874971127136,-1.800976740145364,-0.89980008568043568,0.3016467570109061,-0.40269192771442064,0.51899007728878688,-0.63959683075278417,-0.65622258407563272,-0.89787963368783497,2.4416917116650136,-2.3656042431625766,-0.073725180374043603,-0.35295285738361543,1.0610066587566505,-0.658260795277129,0.33313022281509935,-1.9566211882439848,-1.4384222707683931,0.67384036922090595,0.62357129866461514,-0.38995114392633401,0.20503247836947572,0.82223675148494169,1.1049202641610991,1.7200409370162595,0.59626790903069171,-0.42089074219918254,-0.46066184075445499,-0.36228280212140773,0.68797267153707597,-1.0554170507580574,0.055999046602179907,0.93926865669712101,-1.6809877376242266,-0.45848189822620694,-0.29410450817986389,-0.94877470605362879,0.94440146106772516,0.53410581824919767,0.29768260128844398,-1.1990001452383399,-0.75902229303722735,-1.0033060007446215,-1.1628608920814598,-0.18257452261723739,1.5276494883976244,-0.0093014594828196139,1.0276161129515813,0.35356949443290431,-0.7033570694308241,-0.50119737456646463,0.74359870744779866,0.83633629812254096,0.26486207493388558,-0.78010667600293493,-0.41104352328928767,-1.5750428290347998,-0.140614436135719,-0.008613585347554905,1.1322247593183021,-0.71791977566818577,1.5176377532666057,-1.9249641734364014,1.2350085573493195,-0.35951966122818496,0.77918803468653275,0.20033826962339568,-0.3767358598330422,0.89232931203244714,0.30126338720384471,2.4755854344061579,0.37708362917949084,0.19990683475897242,-2.4047520729606071,-1.1661670835078164,-0.14626078410028634,0.63477476191393134,-2.7401551021343669,-0.11205016369356147,-0.033943124098364606,-0.38160266012321115,0.49276404778802174,1.2671632738747129,-0.93154234524593538,1.6163194200830777,-0.10125023398530522,0.40159524076746067,0.6102743474328659,0.65838416657752541,-2.1284383864256533,-0.096271752001142227,-2.0227176415359054,-0.49646895036834232,-0.77669153062515373,0.62919555129781657,-1.1562099396857086,-1.122828156175544,-0.65858277735958382,1.1517471155555392,1.2030144544562198,0.76418126811289211,-0.0031312677954446317,-4.5791959281154835,-0.3938497119443975,-1.3586837750855354,-0.96871069079793348,-0.91416295097540223,-0.64673225461979345,0.16179993988158448,-2.4593899213585697,-0.61185980975623822,1.6397818835872364,-0.29313525331666213,2.9025230572011598,-0.84373028372009984,1.083237037842693,0.49259945923951626,0.59256314247421638,0.59356003848930305,-0.0075316998859309,1.2890519667103102,0.52022680467641602,0.54501985716103507,0.67703099200202044,0.25416646642029916,0.54860877722071566,-1.0896132428845799,-0.73715514810507643,-0.014053615714618798,-0.87912911298519569,-1.1055261449957823,-0.33876459342025372,-0.10103837829025514,-2.0262163528819253,0.26160962526972975,-0.82361144001047104,-0.99923835054860177,0.72252009879717538,0.89967437442578801,0.6580889455338137,0.4450131724301114,-1.1455737036051759,1.2768447934849221,-0.8933224275281697,1.2888455404004202,2.3570471371688821,-1.8192921354904465,-0.34319774883284659,-0.41844578454583153,-1.7548572779736484,0.16368804929134953,0.22352277148963706,0.44967090543606569,0.74337446883816027,-1.7436369518522352,0.89849501739603654,0.62413799470362885,0.82818759586377344,-1.0165089039412372,-1.3388736958885477,-1.9543833470169536,-0.36286884021075538,1.001438222315812,1.0834225101884096,0.33718096549891841,-0.62722480974073869,1.7841607743517809,0.70119745483581708,-0.50115157567226787,0.6706347425150192,-1.8352997719707276,0.5802370049934874,-0.15348583250796471,-0.33045666374510757,1.7881720278894726,-0.5955999294523241,-0.51450998966878003,1.4241470975599253,0.36507816106605234,0.50460060736559365,0.19706927269341395,1.0839032322251383,0.91068588306014908,-0.55963456693803348,0.32957465149881543,-1.1333254074609311,1.5779364912677276,1.7466807678629976,0.91414608632182415,1.1204842086607336,0.4956607830710491,0.33210900904490531,0.83437828877579379,-0.35387561209625984,0.8198098033466632,0.60364402762025693,-3.0712711053933397,0.2901035397674514,-0.50083355904040805,0.13083630453893105,-0.047339192808959062,-2.2735923378911025,-1.9896756729291112,-0.19881843444877809,0.76524039696792445,-0.30859842540410415,-1.1756536843586156,0.69036017633359592,-0.87923295758002362,-1.2556084247199992,-1.1178933897425771,-1.2797095386822412,0.90503851306287608,0.31359903458001104,0.97238315136180187,0.72427106964074406,0.88535455873233249,0.99644326366367797,-0.61464297153414194,-0.25740848368533314,0.60497420236426436,0.18515073066324572,0.23284863230336214,-0.93583069687128873,-1.0818234551350834,1.2540169246590951,-0.23298608749678526,0.29349391279587334,-1.740570613689121,-0.78334151418237152,-0.5206788264915313,1.1450894275995518,-0.78901587799258177,-2.096589262697035,0.98387596350527773,1.5110968577389254,-0.62220050877828847,1.40407100021064,-1.428329592344745,1.6682501410223747,0.74280091219695921,-1.0792331678068317,-1.4425194706021789,0.77712497882730491,1.2329800613013895,-0.11950773410538086,-0.97329993603940412,-0.45645610079404764,-1.3104093524373384,1.8900508181842475,-0.36363861662074581,0.77802177277107643,-0.45559404286801075,0.29740458531694453,-0.445508837694714,-0.32497794500926486,0.53346650541372687,1.3197251130885546,-0.49713290235558116,0.46999778591343871,-0.93648276334019331,-1.2177121432275586,0.99032016578850579,-0.38521291053998635,0.51291641364236518,-1.5060564152705773,0.33442777220152514,1.417831577413033,1.3168077715052762,-0.16467681451653768,0.60762931724179492,-0.51433421104613553,-0.78130746481571411,0.58201099827160174,-0.10791646995998899,-1.1272306375521892,-0.31269533237575159,-0.67469106292382208,-0.012060620553522061,0.71940184876025259,1.1498054263939728,-0.024275535705538327,1.1652013073708494,0.32558451759452639,0.24250292104958007,-0.90227477160809089,0.81098824114420087,1.7901914304026467,-0.65654468480270767,1.7321094939509851,-0.030035172907927281,-1.415840994157298,-0.023433624782852623,-0.024618939530961205,-0.79090049202561163,0.76617917554277948,0.97661906898879247,0.28605245062180901,1.1047943628241552,0.52617240990383352,0.94901687449270244,0.1099221121449508,-0.187009236812614,0.01256718861974559,0.85083682288149565,-1.732018138464561,-1.1520986606241097,-1.4722921808979652,-1.3286151297445732,-0.87913138438748495,1.3658635253447502,-0.77500140822065222,-0.23061049990689203,-0.4471198723100388,1.4005613260443486,0.66632393326661443,-2.8070527559505924,0.47294793948313824,-0.78429665536018534,0.42613074622901853,-0.28478721841864896,0.21933534578230166,1.2217812266083834,1.3392445798155477,-0.62161627639127381,0.6693013559892439,-1.5455083721620195,-1.7709903158419062,-1.5092355279862832,-1.0463097103510179,0.030862852013030267,-1.4162053594391151,3.0212954789378172,-0.64954405474054322,-1.5005291142284753,-0.77647582748338195,-0.45747274784778202,-0.68530306824161624,0.70381615287516408,-1.3957458163926917,-0.61434034971138285,0.84691961043924713,-1.8155393868404304,1.4934221728257651,-0.94045861619064397,1.3934848842181216,0.27963621028873509,1.4414051565386228,1.7464246657902218,-1.1270332465847961,0.75508495857726687,1.1688755834173621,0.13672259271235548,0.066181247945039004,0.30692059498324403,-0.59114324500852344,-1.7225500280460837,-2.0335323270392549,0.79504816935601441,-0.47019194668404252,-0.72710549155136861,-0.091213453599967784,0.1277244069824075,0.42801274326223215,-1.0478689997328761,0.12919443130377128,1.0556877053111537,0.65924046130635083,0.56719966834687285,0.33491386926144168,-0.10168943159090256,-0.95682125540896723,0.58376825108732344,-2.0501506986467413,-0.34907198023847447,0.020769166164976118,-1.6252098970745827,-0.26508621486546985,1.0805851218187073,-1.562792291837471,-0.59009277075071787
1.3814169287944316,-0.90382350291851021,-1.2113430298590901,-0.21725634040031194,0.55383727303924057,-0.3845771702941303,1.1015285093769165,-1.1980151797794298,-0.76857141817363861,0.32225586858395822,-1.4578122419950932,-1.5872496771206002,0.47451625354303273,1.9319197888467075,-0.072391483231254369,0.8054202927755113,0.24541115776755643,1.2960854825974484,-0.5273021865409524,-0.8749992609692846,2.608850695510033,-0.42469207696735989,-0.39398414719051289,-0.39893228194004704,0.47779485866000332,0.34439051245466057,1.0770970837512777,-0.23339229617901222,-0.50325216731310107,2.5269833407884374,0.91162692885401497,0.40985526650462389,0.0215091891429183,-1.051464708801459,-1.7094582420159747,-0.39185677518925466,0.07553615904661995,0.54492769595012491,0.96767262775531915,-1.1462856842561129,1.1800265370498297,-1.464372153598132,-0.88284557369815375,-0.18001135669643675,0.77743388404436142,0.51082081643216837,0.74486155721228531,-0.34747750018842621,-0.52633181474677282,-2.156056516214238,0.64285339526770113,1.316080885386351,1.2259070251050541,1.2178546183793846,-2.1407610405405766,0.70925087350172544,0.037058230871368121,0.7906272088562003,-1.0463853141571355,0.23980967665259501,-1.2330121111347379,1.2768710652708728,-1.279848993474954,0.88493691919683259,-0.31819366627090484,-0.37781635506942246,0.1734822952006205,-0.23152853919118199,1.9550677447494038,1.4669168286440626,-0.093245380403504372,1.6268983432068025,0.55393806498615972,0.79073564502205862,-0.20606784490434268,3.4898715016527042,0.3942849286225063,-0.60629893335519214,1.2436207893675473,-0.55593496910881124,-0.098676109688210764,0.85127431664938158,-0.40618416107510336,-0.94386538897595296,-0.51809743843193634,-0.12579839315612409,0.69664038695148667,-0.027536626947212005,0.10951338668501266,-1.1867580883903281,-1.1086819509337595,0.16466345553028217,1.6869671770664874,-0.95675766297878961,-0.051885728339629296,-0.17710955586170105,0.92135304836825804,-0.38287127691964318,-0.50469152697194097,-0.47495960906786383,1.1923466293368603,-1.1919131051150758,-1.3220043360648861,0.77682518093463382,-1.1916343795500863,-1.8712597327356979,-2.4544923152538805,0.58689886725421658,-0.40217260051873427,0.19149831629698705,1.6573201916665339,0.73319651155858878,0.30343068699964987,0.67302831700846621,0.73223603655275693,0.46396963115651318,0.9062677883304352,-2.3099918562837587,-0.12540808220997937,-0.21906838880526422,-1.4482026971437194,0.33248062191422534,1.5723715426619889,-0.68385699284561674,0.60233898464933422,0.1847998711120161,0.16250361010997402,-1.6870678083902344,1.1788597440012414,0.77618613598023645,0.7044986149930228,-0.801607752177667,-0.35192069120974739,0.44554276378045904,1.3418077083158442,1.0522568731682407,0.88845498039214188,0.076072847967372167,0.88192239493186675,-1.0904947635805771,0.58288227263926307,-0.84867070161169678,0.3644087533665048,0.94899432110705451,1.3867267015895723,-1.0784271546731679,1.6742434883275648,-0.50903722931354778,-1.771536027310429,1.6827247915171044,0.043776130924592656,-0.73255415294154669,-0.36859671787923359,0.086077028680160969,-0.16624624126812873,1.0901216149704103,-0.58227333819427796,-0.78205396507164804,1.3932994650478281,0.14200940164887343,-0.79905090557972502,0.17954716593499523,0.52187400223579472,-0.25591681786262027,1.025942871598359,-1.1190827029364445,0.62849215757019861,-0.10239625904758125,1.6399333278094546,-1.3454932444213294,-2.0331040097407067,-3.6428478912476132,0.6530146160178617,-0.48450392085786553,2.216890027722251,-1.9404316653744482,-0.87756688169041985,-0.18896492462400821,1.2486510806759401,-0.40450599503410994,-0.6900843042275312,-1.9209029014453221,-0.70657784348309771,1.6431731414908926,0.26262607082605799,-0.15592367847104049,1.6323773868619373,0.34371495225791643,-2.5591861673664846,-1.0298751547115383,0.63890439597222337,-0.93209751735538127,0.94946221773747275,0.68692765796959776,-1.0031612116586603,-0.15116867380691096,-0.79613814519209991,-0.45546534578337322,-1.5256202784410855,1.4899188279833071,-1.8836514181204467,0.596263206675688,-0.19978363211375536,0.11426542321828782,-0.18922990275300566,-0.54634417439682581,-0.66944640078645212,0.63963849353795887,-0.050013484812328576,-1.008671127989855,0.47907747015460134,-0.24021808956357188,-1.5700537753266646,-1.2116804988870131,0.5712375311363399,-0.6440421684457921,1.4073710014923908,0.32830219675542865,-0.69069782479507857,-0.78096283141843958,0.94431474820453321,0.22065355675279183,-0.41591151236912777,0.5564670696368077,1.2701326603433647,-0.73611101512159305,2.1838547251120874,0.91415255620478331,0.88063261596826858,-0.88462969778318834,-0.16145371136905182,0.057540357878749733,-2.0078141665161415,-0.66458367352855185,-0.26746290015032242,-1.2214716456157744,-0.16738597385836698,-0.36036200574743321,0.046967968850074614,2.3064684096827328,-1.7529340523638497,-0.7134700074261382,-0.13399775485782633,-1.388831736379083,-0.42010298694119591,-0.27202076580717499,-0.27762531938480589,0.20895435314912383,0.0045632511556260354,-0.28932916350378518,-0.88045085885697683,-0.92104160801072699,1.610694709458238,-1.3082002268831541,1.5164493685372238,-0.45353521700764377,-0.027310839207221535,-0.82243227850280465,-0.054191489719376401,-0.058353046262144721,0.83568854491425071,-0.091323328626210634,-0.57685070883629486,-0.26035575246530407,0.49744515523356703,0.48812878974169382,0.80385866482134316,-0.31245121512059054,-0.99958921724953953,1.476647638704454,-0.011391162326744815,-1.0849827322925665,-0.65552594480977233,-0.15904350496977882,0.44605265441207331,1.2225097134199956,0.7360196920797385,-0.57821861360440163,-0.34200979434908307,-1.0319240554079379,1.9747732551173167,0.59802723054670315,1.899111800620634,0.21810989595651761,0.22033075922962059,-0.47506929915501672,2.2219214875199018,0.33031564389261647,0.18161716479252163,0.2690913385794752,-1.4652607315158601,0.0040187586150585456,-0.60150547520526765,0.71262194580725557,-0.8207079504965149,-1.3804730494697843,1.6458214651063867,-1.8373330614896146,0.17584740387447192,0.26527006201019798,0.00071682787081107501,2.431197475468748,0.16241498985121372,-0.61734756301035065,1.7298704823791018,-1.9104403043603551,0.83614556951142505,0.17864137355195181,0.23825259244550015,0.6372508506937381,1.4830700348361716,-1.0688193540640964,-0.07003213141225767,-0.5184721713764705,-0.51634717598469737,-2.8383895903687031,1.0538026223607857,1.6495764386808183,0.50406250017513776,-0.87021779622132156,1.717159800687952,1.0334496919222236,0.31836031034714857,0.67024105474629336,-1.322898301271614,-0.88772430714390638,-1.0757428774483591,-1.1501867125917307,-0.99786386934664184,-0.1546370786084153,-0.96156939834677679,0.19412664432404003,-0.42398304020487648,-0.97422683879491712,-0.30785585709144386,0.9391774970646215,0.12599830472275406,-1.3251048054028369,-2.5000024179212419,0.38482759410413608,0.46342093149498531,0.085989598196250919,-0.14755067901545146,-1.4097897922590077,-1.2014289250819612,1.6347559735394972,-0.73150466096917899,-0.077171103293401211,-0.91975737882176078,0.9192928787569129,-1.0661471549316621,2.7601071788391036,-0.35617613047731939,-0.54690390234730246,-0.059927530771207924,-2.7207854908067475,-1.8734714076566843,0.39005502494095351,0.16702833797729949,1.0568871163337497,0.82401306981208733,-2.1460396093140424,-1.0748625830738752,-1.3762492003777669,-0.18698928701863926,-0.83857632243776092,-0.47509869294720458,0.5384688846290121,0.066859640239549475,-0.2958322113854312,2.1242504558401256,-0.83059378274102369,0.5110901234950409,-0.93288767384463256,1.1909737159078382,1.6715088569586078,-0.50356213980230213,1.9690855730106178,-0.12308438879085801,1.1899462877709059,0.065118795867514387,0.72803060503548511,0.87333492049357209,-0.48017740530332059,0.3622700305645728,1.3841495028400133,0.20869203301376077,1.920582156881212,-2.9154256315736657,-0.16256686228966225,-0.56164054602821589,1.9126592526701658,0.16427675655654136,0.19589322244200433,0.0042635167117392901,0.6501582868144451,0.33933157273987891,-1.1383654834894366,-1.1181643011782458,-0.042629435575941489,-0.098692176845054269,1.5072898235673977,1.1270387163485154,1.4357333893286603,1.0140166300068831,0.001058685120772123,-0.67595212974630525,1.3430168643938627,0.99029413316748016,2.1866960435449783,-1.8467391544721885,0.36491815063499983,-0.27407139956267945,-0.27769606221539006,-0.60435528081889889,-1.5985320435891219,-1.0847221321772476,-0.72393267937904493,-0.37932626778169126,-0.991309929800825,-1.5452586555562822,-1.2957970681740263,-1.6645556095858323,-0.33135686812049198,0.036824563400988386,-0.48569698513695453,1.6791001157312542,0.54874004852419167,0.44765656937773585,0.75602866578477668,-2.0094557796504411,-0.4538730077252684,1.777162719991555,0.18555851875339502,0.91783477031129002,1.4762432577035487,-0.15892400226499204,-0.80931198010860494,-0.1255861534907671,0.93615334411943563,0.27373392543496428,2.1361099550926981,-1.2790883029221758,1.4742030245283031,-0.094772513881292972,1.4223946115264103,-1.1868051133064361,-0.66485247392780888,0.55992800719637825,1.1753595943071373,0.50350108310350661,-2.0508296263355281,-0.13156326872271779,-0.69297999309938818,0.72349291882928479,0.36810881596454209,-0.21154802815058651,-0.1177660950476578,-1.8939985211306465,-0.022419503049178287,-0.24686575466745844,0.25390859482724476,-0.57446201100697003,-1.1729337833115066,0.046303454826809219,-1.741858840907021,-0.0071239020166839404,0.75933833889814673,0.20595576447937738,-2.3223160230412581,0.44180646633043247,-0.58445564310084031,-1.0046724749026492,0.49441633915017302,1.2958939004463512,0.38280419852941461,1.7803606277950621,-1.2577340670549213,0.494199659099609,-0.31111471005678915,1.1762979900010346,-0.071740767061222829,0.77656907059232227,0.48659193619062402,-0.043336896233130341,0.37985283919329887,0.87839089912792256,1.4697239131377651,-0.17819454632538814,-0.95425373638888944,0.47730266280801475,2.1100451985362478,0.86567345970804355,0.56277376026639447,0.58892693764694437,1.456754330077396,0.048900557180238988,1.3654343218076979,0.036126935211746564,-0.99406081072545183
-0.85754582893315734,1.0658379163990905,-0.5949204918701444,0.36892024073418334,0.63956095873029339,-1.1653142819367686,-0.36843811893480422,0.45911623985481909,0.49011596794973866,0.73317344640981319,-1.8603221722589931,0.6617598849380294,0.8307200706436072,0.31370091200504668,-0.39829235260509421,-0.012589382704325148,0.10562556013898321,0.2810588171337009,0.46165001083594182,0.40426969812516511,1.1569903167880156,1.1338088907169162,-0.19480015438641646,0.091120278421867831,1.3917587248996861,1.4127591021672059,-1.44055572415665,-0.31988833112899118,1.195780642454114,1.0173175379914698,-2.0512414217897734,0.45569723163268999,0.86136386528363307,1.4848203821159422,-0.69396757356653871,-0.61455808782666799,-0.099410966075771295,0.65438608946748089,0.19685020682744478,-0.50833168148561159,0.69651090174867125,-0.30408124240460588,-0.66673751438822526,0.29910720368814364,-0.10179412539777824,0.59863677578048269,-0.40039904379354885,0.15324819565077599,-0.49663224215707247,-0.32272310151004097,-0.59902293743471402,0.27220097448813657,-0.18223439913676912,-0.20522858989636653,-0.18710522642202662,0.45606132852964132,-1.5689471831747508,-0.36862704269369856,-0.90110918583187471,-1.2889818602844532,-0.41499945582392744,1.3900071115467481,0.23125853759363993,-0.63673626630351765,-0.64277041827360704,0.036274126975286043,1.130782392928352,1.8265474449591232,0.08752564166882533,0.61104735788214337,-1.3116141935190631,0.87089924224325366,0.16525857096933316,-0.65725083842072918,-0.18605077311437951,-0.7859461390894833,0.11810168686262466,0.83428406045766124,0.87874685625744564,0.40770364941238735,-0.69094358444502479,1.3301539256468717,-0.45622512566894091,0.77397434793009445,0.66929582799914245,0.30841295908795335,-2.4775186125815405,0.96198545880371766,1.0642510040170554,1.4483719411712395,0.48343813508225303,0.45608265695771422,0.51885764284192548,0.19942929174122431,0.62171468832920296,-0.97818313227607501,0.21153815062464726,0.95225247063600915,-2.0187831005460812,-0.43649321109234018,0.89916636231149638,0.70528847009700624,0.45971695267316737,-1.4929408568649036,-0.83172912916382569,0.86790845158192975,0.41067262465856186,-0.33882969364044696,-1.0377788366356755,-0.21416820800362249,1.6585294457675761,0.83537386080997422,-0.66460027599877658,0.82724312641436148,0.32862601024774779,-0.36670210376862594,-1.0872910536202727,1.0844342260608741,-1.517148737101808,0.9249648292535062,0.018150740965768297,-1.0677790751889134,-0.27608716188513094,-1.0464785644274985,0.9472517041437799,-0.29666526730506249,-0.021288932416909562,-0.26615383770754447,0.49575036360906249,0.045676713668078038,-1.2780720644974701,0.034254505256653231,-1.2677314146400878,-0.92552802046271365,-0.69096119899460384,0.65173294764324141,0.13458346723356168,0.37677201175064562,-1.0949787757014726,0.18668240496418009,0.16738553485297372,1.4904653435026838,-1.5710589272623419,-0.52649675406285046,-1.535994038890208,-1.2464674998506498,0.082019781999971231,-0.63168741435048825,-0.1952265220030058,-1.5470165169535648,0.73620035847462761,0.27239972095249532,0.201601077485599,-0.10228599902621716,0.51745225418871166,1.1270586561816058,-0.45563846672833552,0.3382651753501924,2.4607834826557875,-0.1506945531577184,-1.2683438043546305,1.8593486229882406,-1.4106493770708188,-0.75656641303021455,-0.66887528600924095,0.60939985418621412,-1.4438015242172779,-1.2415768481585334,1.2869313445784711,0.72912503829365438,-0.5697454380230399,0.44886236230086823,0.77219624562878098,-0.28626826188504734,-0.97893597295131796,-0.076167998245846594,-0.39815918413943502,-0.26084665395481138,0.29174170542432992,2.2971948975454741,0.31970960851585689,-0.38277652295015385,0.33233266268977257,-1.01530504700727,-1.9406955877999994,-0.053923912712849922,0.89396245701165566,-2.1446300321536347,-0.6313785527306337,1.1230074832502552,0.59231861379902961,0.74074156548317527,0.26240729837995908,-0.44699665629152513,-0.23103183842916386,-0.89251571149875453,0.64433288151627344,-0.76333359706964587,-1.5371756851138718,-1.9359173487553738,0.48301989692727582,-1.4843831269281551,0.43998196650650379,-2.4241108133316023,0.98245838317644585,0.50513802095448079,1.5270245342140489,-0.3670786859577102,-1.1807022121951471,0.55491702863648784,-1.2877864004566459,-0.18250345535949861,-0.83789440130691384,0.57317806017966599,-1.9470583585554562,-0.8157618292776212,1.5330555257035499,-2.2567380896418476,-0.038621306144538681,-0.43111298837772405,-1.4755104938405863,0.26579006541764238,0.19114632833673237,0.85341465823443874,0.46214777516775035,0.0066278578831394167,-0.49492733552951118,1.4398782398201415,0.066796440821075553,0.69602158281997784,-0.44421922041816475,0.45766446428472696,-0.84596620033847603,-0.028908707253403849,0.68017300599184627,-0.98771354331548555,-0.53049035282174606,-0.4321124260883864,-0.68599131405221647,1.5284374788086637,-0.28756373436147104,0.92287069695478574,-0.27218542562148162,0.84024753564511057,2.1301934916792065,1.9048564996737463,-1.0342562889233422,-1.1756832399382202,0.83659250940427232,-2.1461534375417326,0.66812639063840618,0.11725795306520496,0.74292719124655249,2.0510286404211642,1.0307479821136307,0.56392274537455478,-1.4102883331326541,-1.7509533317010917,0.52827258887930462,0.42617980128204447,0.11619061154279085,-0.16811186660316046,0.091988789078450151,-1.8200417309226418,0.26074377582396463,-0.64731317826212265,0.39061128958450436,-0.017756344914751278,1.4440509901521434,-1.0110015376738708,-0.70050390586975009,0.92626484548462329,-1.1870758493654701,-0.76760410538989809,-0.30586102574158319,-0.86422119678285381,-0.80514947543171,-0.0012482701141808853,-2.0020097449445697,1.1401123688648818,-0.091331506661548462,0.20482110840884493,0.072641732222138947,0.082138333999246096,-1.0522051661996519,-0.63552170183715539,-0.098557785585383487,0.95058742528602014,-0.27320105932161132,-1.3575807964295183,1.0168764029217334,-0.32256674303073685,-0.53165121732923781,-0.55418436776894886,0.08541784700870346,0.63139384324051961,-0.70472302535622999,-1.2650637984654054,0.41013155406777813,0.18487447990065664,0.76234167446209566,-1.517304510627195,-0.20826585776329826,-0.98777521883896346,-1.111569595469807,0.56332767777571091,-1.5398972112023925,0.66362119107439521,0.44486268773312948,1.402352201024379,0.49837675368916773,0.063158919266626048,0.46644113173813967,-0.90102846305465278,-0.21815531800242963,0.99267141438888506,-0.81192867945906355,-0.50756167204842728,0.7646009325661246,0.02556576503620276,-0.31874980573574274,0.63810193948142568,0.09599889558714543,-2.2522220433361624,-1.4408226079900615,1.9223952059209715,-1.3214790255873012,0.311390475806685,0.14209931556604366,-1.3511209314312804,-0.79044126159095862,-0.99694129549002208,-1.4650587807487847,0.2321738180913803,0.41963243187775073,-1.4580025986317446,-0.576350425231546,1.1622500462087317,-0.50570790453218395,0.84219170202191762,-1.3354894080513362,0.28884894632138858,-0.64358875564184947,-2.0214340306340191,-0.56942235510382255,1.874153871211687,-0.31639925535100155,0.51255582399624022,0.93578137330665312,1.1790414031982608,-0.60835637975749079,0.055904526857627,0.21883840554272299,0.47680721903612605,0.81529657078983819,0.53716296855548029,-1.4848229394991943,-2.0033781632372749,-0.2740700304532977,-0.33778831980463936,-1.4938136595751084,0.33058551336144842,-0.054170082177401511,0.83811443057253299,0.12739284146803728,-0.30086096614129043,0.11596045154570753,-0.31647593991816858,1.9280494922312732,1.0205481677485095,-2.6135035238647744,0.76863618010855661,0.96743606592547571,-0.40350527685273418,-0.77061601071534158,-1.6059993316366366,-1.1165819041024698,0.14364992407303701,1.3883877275810281,-1.6404720716940715,0.063291449624256868,-0.020911049672714038,-1.7175493883882336,1.1677881321953254,2.446352789882615,-2.0137435917663882,-0.31880717303305717,0.30426660368174169,2.3359037617325935,-0.014019269853657238,-0.65021673121846224,-1.4101179034882116,-1.0588551239903436,-0.62413088011058471,-0.39173212335497437,0.85775892765584716,0.11731575000909686,-0.43271844810844567,1.3088661200291405,-0.45522774821580764,-0.18563197617276769,1.6291030067049967,0.67571748179149271,-2.9562298350935623,0.77629959743550492,-1.3826464165787173,-0.87954526732089511,1.1182501757399577,-0.25782056602991094,-1.5018883833003902,-1.64096859430127,0.59887950079757657,1.4125601796175118,-0.72529930483765848,-1.7935371632173733,-0.079512161151536379,-0.92045615297653338,0.27087190168594066,-1.3802013576217349,-0.63552918505940603,-0.36826027614154394,0.28056745611360373,0.53091468618924542,0.064050164368359752,1.0795682509841418,0.37261962693834444,0.95868173159661418,0.094912464333086047,0.45801264618857884,-0.052740137982631295,0.21757392946009077,0.25053134133665778,-0.73612818080510112,0.19467667536975694,0.73217976053275802,0.15107895235987454,0.35939958667785826,-1.1601243681102107,-1.3649482932477237,0.25662911023933566,-0.19433894211632416,0.089142455320249323,-0.3234802074887782,-2.8406517701871268,0.92869665831718751,-0.54366041957309241,2.1457851682486044,1.1041534383806109,-0.66844520940881591,1.3668200198604226,-0.87648491081514213,0.89019426980301697,-0.076045917479444711,-0.64353576620871933,-0.46822183742516071,0.62363756942839754,1.1754790302573235,-0.44025034622801507,0.71134135045383762,0.46358996635625443,0.11622566254659425,-1.971118512843018,-0.70891190075776633,-0.17743978085447001,-0.83386297320777669,-1.1256921947403593,1.021866845488383,-0.24639865149641513,-1.4153656229368858,1.148119469271073,-0.73342278058886701,-3.0044209217275895,-1.5311341065803377,-1.0358305912604984,-0.098972988976156986,-2.1854309706351152,-0.24319739554854369,0.71060354574279794,0.25139831766667642,-2.3417252480492858,-2.0323812324460051,0.55664239203020793,1.1450636012783246,-1.7293038896724293,-0.037155988067252579,1.5876796244964699,1.6378970206862473,-2.0155431706473821,0.12506161895661225,-0.40598650780545587,1.5086797147562532,-0.01460188852499888,0.95648397225890713,-0.65948213910425657,1.1149976096460426,2.4296197260520307,-0.36041253957036518,0.025660914180780221,0.36767232241629544,-0.44649480571477562
0.035908970929983471,-0.34856568176951536,1.1982913267402617,-0.58298993460352655,0.98133873154622608,1.0452562436353576,-1.3579288895908226,0.88183767645216882,1.1132528080241144,-0.59310567054280006,0.6365171755312492,-1.7226572092778372,-0.34150728579836165,-1.7323346551462671,0.15039127515962653,-1.439313533639988,-0.57375050509904013,-0.97296153854926404,0.17681418630263135,-0.57303609570875946,-0.35385710595008996,3.4310138632559481,-0.62401314167852207,0.14859491661050847,0.23085798327491824,0.99920455204010217,-1.1815095987222863,0.49322750023811385,-0.6083203083446177,-0.84969505109646082,-0.43021576457403465,-0.30762754201186043,-0.057042610716177659,2.2848354379731033,-0.90976111926859171,-0.70180971536426884,2.2964255381036476,-0.087073199648088642,0.15741130591731001,0.4244027103370962,-0.93995075375767678,-0.12494883344479167,-0.99043831762057499,0.72287109911787462,0.24210434359967531,-0.36973271739944091,-0.9252927666790588,-1.3862858162315148,-0.12176998632367401,-1.1541436829790359,-2.438411024192598,-0.13748269651661535,-0.11844528584532754,0.70762773988306094,-1.6739329947326602,0.34497440591001455,0.26061085266864642,-0.91662702412064867,1.0529625206603945,-1.0792484489847163,2.4928242791698203,-0.38613721800993667,-1.3277067902300204,-0.68606120029037598,-0.18555024702193923,-1.0253699771128679,-1.04359271607061,0.25716981013025669,-0.76483470979128199,-0.7862970591066839,-0.99508761088947217,-3.7358325698967043,0.6961867007823952,-0.13690365596715656,0.3934294019738605,1.465139434205601,1.1252315693976831,-0.10031201566031345,1.2245204027762915,1.0460556507888441,0.95999037940442467,-1.5533888845249761,1.9156500142616137,-0.20544573344852063,1.4112930716482279,0.6836203875720156,0.62428509457318071,0.33516756422718896,1.8532345709334443,0.10959234485412889,0.16118923860825302,-0.83686917708870656,0.13684626584279794,-0.42966857146887572,0.17672840058502393,-0.39733886330654999,-1.5990597186800768,-1.7704561083883001,0.21281015236191106,0.63933246339117245,0.074704797053594077,-0.052053702342308154,1.448804346629724,-0.76614749583084951,-0.93116570454334835,0.019770445691761902,1.2317774047656995,0.35804836551254926,-1.2220575266590616,0.36475883860155311,2.2857159055457976,1.1048788155472318,-0.91994467623970155,-0.77419356192774857,-1.5970061297991014,-1.3671862250345448,0.64478931210246104,-0.67677624205843523,-1.0028245378585641,-1.0166120195279884,0.4027678524665404,-0.40551754341802071,0.16921082372937235,-2.3496325680414216,1.1926990156543316,-0.74323227633574063,0.048205700654103269,-0.42663557179428979,-1.8244609322653271,0.33904606776326074,-0.29717514524701927,-0.47075591036586839,-1.9586054119499445,1.3219727201119158,0.73493530094005388,0.61987197166712349,-1.1760548272411149,-0.071619413078980537,-0.3396840040520821,-1.316049230385304,-0.54782547226809708,-0.28643267437348768,-0.61984472557340164,0.38287681523437794,0.325432790561692,1.6105382705171012,-0.62928403886284767,-1.2812889841095043,-1.967105276832358,0.25526437957303266,0.37612559130191064,-0.35376448398513372,0.23314839265380249,1.3725191374736132,0.38305616156259159,-0.70778232454157552,-0.068605068888523718,-0.3249259519388723,1.7307286519972058,1.5305458283949775,-0.69782562019437688,-1.424881116075235,-0.50402927330574787,0.15161805792150004,0.71851391347939098,-0.57810969394506317,0.26905045174186026,-1.7133737486442522,0.56701407540412041,1.8495827602420225,-0.34735384328743291,1.7690410727691925,1.3520812802808475,0.8708681273005896,-3.071411684453297,-0.91455495397869513,0.13157794615565743,-0.53351682534372635,-0.24328103809708654,1.3075095415201781,-0.23514818606882412,2.1968268346196593,-0.57371217327548762,0.50457085699691973,-0.13764743702864457,-0.88473555841250351,-1.0635995171609423,0.38251482820633487,1.4434874778270232,1.8476900070770528,-0.61423771928223492,0.14638679895578011,-0.69019211242110579,-0.88949451011082459,-0.70859812941735434,1.145198630026631,-0.96632416435238744,-1.0592823027900111,-0.41556762039691097,-0.95750361363732928,0.63513564556369362,-0.052376665243073217,-0.7767297344904055,-1.7861317124965683,-0.17064538399216245,-0.21154556995887436,-1.7150142984981058,-1.0269607924809843,-1.2566535219349799,0.92997929602928042,1.2394399222079253,1.4605071095766766,-0.90676398166543659,-0.45201158375804884,-0.42027534693154855,-0.68722693057773521,0.68735758987706608,-0.37156337742759887,1.2405085657830088,-2.4295569436557716,-0.1744129176342494,0.82672475556425962,-0.47746995070180337,0.44576584286915372,0.21587820238872701,-0.24347895220441704,-1.0563209370380413,0.53665460237876506,0.94584716648390366,0.11157126488828913,0.99798233928860947,-0.029075179813225219,-0.72011329828676918,-0.011353645837756408,0.83803088065322218,0.44396941503307713,-1.2839758397923597,-0.52035937619084949,0.5916090429108275,1.1862201338207106,-0.999770291787759,1.0312147719572649,0.36438052392322134,-1.359717759167542,-0.64034198610790083,-0.61312816608498388,0.81761896846015081,-0.61550465651158159,1.1260335387255236,-0.34050222962072069,-1.6797329882426668,-0.60579872422434955,-1.6888152299691004,0.14057688574301783,-0.19580971764942193,-0.77594031300048716,-0.34464417756558297,-1.3168286480987237,-0.45581823841827884,-0.21033457909605932,-0.5160786824821606,-1.2318348105379198,-0.46692974170975093,-0.21634783269928895,1.1685560894438511,0.69128935252468993,0.3802782027447999,0.12128574602371162,0.11307646038423445,-0.89421374809369047,0.20997636460626673,-0.94542890982103667,0.86392049526848957,-0.84038556161614364,0.0084243907602569654,-0.099216416182173098,0.47242236075487559,-1.1090317453074259,0.44308844123712993,1.8818932696076955,0.097614007948226916,0.74539059502459082,0.76872962838119252,0.81992598367326508,1.3599792569473332,1.5009481094581274,-0.26014086962050903,0.39559609815366836,0.9604490305366552,1.8392308185502801,0.20898113871696156,0.6468079724911131,-0.82679265212956066,1.6319976368613971,-1.9381131553626081,-0.39999410493099624,1.1742458267886349,0.73095064095308515,0.585229848195299,-1.1457943541076745,-1.4076934168104047,0.074248428325782545,0.11892824031882375,-1.1067012571064314,-1.1124601157960612,1.9407422595214139,1.2672726470636495,1.115476263228083,-1.9309705389122607,-0.2654820598097869,-1.4440303539616894,-0.21048431434349676,-0.42594546271196504,-0.1169471288843881,-0.34875148888112523,0.8311000425852838,-0.84163516873793376,0.10835765449577506,0.65133133520419573,-0.26339204095022156,-2.6499606747266888,0.48545219848442578,1.9225712405572513,0.023806088615341059,-1.5760023784897577,-2.288157179253175,-2.0521625173594891,0.21026332431349481,-0.53849111723257481,0.30066045420053583,-0.067951230625222542,-0.061685830627168182,2.4189838080087238,0.89734171708912869,1.1169666307771173,-0.83028218640460405,-1.817576294928178,-0.63905588123741475,0.54013253507876646,0.78589418707725434,1.1267955625550545,0.49415926743011418,-0.49790208217033444,-1.0796934671497929,-1.3366129582971162,2.666404992341739,0.61913444187989453,-1.611759990500792,0.6394116599827413,-1.4406322733786481,0.24215222269052458,0.072818637184720897,0.95265311499315386,-2.2903959702569208,1.755849814487437,0.12132825758095424,0.42745343520377543,1.684405763959151,1.6680712983918407,0.55147435012929957,1.8878860938643418,1.6994598102709593,0.32920496410595967,-0.67884765228595312,-0.084949074223375609,-0.60765188874301646,0.62343613123325181,-0.64600299340323086,1.8747467902864565,0.94681774110321537,-0.16445775682706076,1.1466851866871848,0.41256960596215825,-0.11187847724043773,-0.92257874209969659,0.14551708763617577,-0.42048867288421254,-0.57311833282152691,-1.1059540650120439,-1.8680458753473561,-1.2037025268563393,1.3741511773692785,-2.0589775372226065,-0.20295541744612786,-0.63428241278959308,0.86387824177303185,-0.46733648156560353,-0.901381354119136,-0.67635070115650509,0.93177765225819764,-1.4224859078488084,0.60143948794239255,-0.3087648955802999,-1.5711536837719435,0.29816069129940531,0.10401628027926037,-0.9802353724037578,-1.8370074319110403,-0.72442705900622206,-0.64002065333642599,0.67433355950441098,1.246626998211366,0.46653274484091029,0.33226084189365612,0.7201057774433598,1.9151400717368487,-1.511426728686081,1.4864311896100284,1.4048985171843242,1.2638343719803486,-1.2715484838926736,2.8517775910526115,-1.4956442919169022,0.57622854758467201,0.72425880801238385,1.5144254345944483,0.21156006102747138,-0.39395503052328523,-0.064053330350898219,-0.8505566642290765,-1.0978144410072617,-1.3734612407535169,-0.022795578940493992,-1.2578976608606069,0.80838564059049134,1.0155024408387485,0.23686741144336576,0.55180155140959808,0.7778367797560477,-1.6404151326675602,-1.5406035022095015,1.3585402940524542,1.2521546380506283,-0.015536132178678025,0.57260363396605451,-0.75214578668450338,-1.9240090535991181,-0.24802914210812432,-0.17555456825049265,-0.40266400217059611,1.1197236039377947,-1.863275142258989,0.68005955242396021,0.17681588320720534,-1.6002968817433443,-1.8184914704097326,0.36672170262164205,0.85350214590125351,0.091375222392626132,-0.60554680030474084,-0.38725244640582007,0.50416190310730835,-0.34028548229859168,-1.7152333472429124,1.7797936030997976,-2.1520639317104528,0.40905050738796955,1.296500795105338,-0.12732412691505876,3.1233455571254019,0.89646844912686441,1.0323242587963961,-0.4208342988100332,0.30020089211972506,-0.41824260982604672,0.084327732473068781,1.0274444081433725,-0.35710051285451283,-0.409127582029152,0.52551673029301027,0.40209525022047965,-0.070951093982825814,-0.12265837394971817,-0.93113308839363651,1.2980020081279653,1.1242014979338488,0.91459755711778945,1.4719119792665833,-1.705152853068888,0.53930345387016243,0.43969537590692948,-0.41914522892913758,-0.036400690536649044,-0.072860935354498224,0.97851224214578703,0.19949723556575127,0.012565342391153821,0.18292700147964991,0.63601159877631586,-0.29112182600412023,-1.1543658364917082,1.0981640604301488,0.12101162874627945,0.054608747231519233,-0.37494350386233738,-0.40621615981839071,-1.2215241796355565,0.16554317277860187,-0.97794740464933549,0.56851181675000106
1.2592550037708174,0.52509280232741551,-0.63868834970188115,1.8469774957947294,-0.093300808461769316,0.90684071586901116,0.10545321658391253,1.092967950288054,1.2309097178381028,0.18551089719410294,1.1692224516983125,-0.93419352869580552,1.4650246550755834,-0.64808529865638154,-1.0329076984147543,-0.7038733089285959,0.25842626426174725,0.31708298875872731,-0.30979547925457157,-0.78583170022573101,0.62708925250922476,-0.019227519214995294,0.70531225754716909,-1.5227170487157715,-1.2263033368872307,-0.3912538932338453,-0.78022862929647507,-0.25909972282589089,-1.1702941327103555,-0.33821695746171265,-0.42409804600862316,0.67790886409673801,1.0567936119574031,-0.12144709329884038,-1.208638769990743,0.63539978613858838,-0.55875206945159928,0.078586466210462932,-0.92754467345678338,1.0415571941347459,-0.9959607579075489,-0.07830587358977939,0.34150139800636237,-0.92216796218796993,0.62735918991293482,-1.8508647830477849,-0.35555801226519185,1.1819939173185718,-0.46747251302520221,0.92049121555038926,0.38703382354506272,1.2680487886871461,-0.69853229557874541,0.27154369573270981,0.12820164391243655,0.30278154888127023,1.495222557745683,0.47926836533969724,-0.41416466319054407,-0.01890777702732066,-2.2158021053234394,1.2604385542673255,1.1074789740739936,-2.6728772919031232,0.59881690355849382,-0.73696843830554593,-2.8598154771907285,1.3285083508204645,0.57741657371230015,-0.31619078394365696,0.53412883806712808,0.415414395364952,-0.81237980833015022,0.137146643641399,-1.3794894168990022,0.74741990285237414,-0.64098523929058904,1.0537106318292742,1.2806712723933171,0.25120129205947533,-1.870004445868563,-1.6402319720196963,-1.3007501594622646,0.20478991391533949,-3.5336138165680246,-0.81838766821189846,0.31498614949138554,0.36916436686591092,-0.64870759385038512,0.44350386218843396,2.272761934919787,0.96723376098244229,0.51452256634477511,-0.96760182546235096,0.80155725075323503,0.39258434040752427,1.0126816969943464,-1.3597506869555489,-0.37069194150726864,1.9130459028244939,0.5810656500949718,0.51123828314207465,-1.8993448806182169,1.0132793194536187,1.1191801782022179,2.3285729043607999,0.20733543534843918,-0.27372902634994573,0.019103035699776023,-0.26958217275086338,-1.6470859336036729,0.21531289704440262,-0.029239375461003126,-0.45473539660736573,0.48878880868213526,0.26554969800585748,-0.0061754313323003646,0.38027014592476943,0.73259211746226249,-2.086485720991663,-2.3849811182909924,1.4397818867341357,0.9521380655001026,-0.41251366317586485,1.3581427964254076,-0.33391125722898141,-0.17621620256134024,1.9586975430113469,0.55895788389872858,0.49610561382445217,1.018148042731309,-0.96117906863792646,0.43736516194716474,-1.5321381380802406,0.83424615674424163,-0.0091756950075870761,1.2203875576517875,1.2981553970466304,-0.92866426184915474,0.43782286579344482,-0.98936373079275564,-0.8341259336909177,-0.58452717778271546,-0.67465400419133215,1.061013582573505,0.49197819336936593,2.0438795882975302,-1.0542903643961639,-0.97398395738534982,-1.0895605340927508,-0.25848882803617879,-0.61591563797890503,-2.2765528881255808,0.28692282386960727,0.1413289556653238,-0.036313485791201763,0.9048476965751171,-0.87836681072087996,0.2074867797035865,1.6625727187870007,0.89039724987500379,-0.31878650704708034,-2.296484248440696,0.044509708750519163,1.6998346796333981,1.785014088089651,-1.0590719566011646,-0.91073812316577485,-0.5621269380215872,1.3793011906485029,-0.88422651295741506,-0.57708712736234424,-0.69685680117475379,-0.17582273035884016,-0.25362799417156545,-0.79351051825632646,0.10433615623187358,-0.73739324010475016,2.1560928406452464,0.92650287870386461,-1.553276250286231,-0.274321269902224,-0.63929726595811298,1.1462396310097729,-0.44098195062415746,-0.59339734427993041,-0.4859402733154975,1.3049102898423679,0.72978624269046399,-0.44177020259882183,0.7519020581200706,-1.2174130030625814,-1.0463358344819826,-1.1884228196750424,-0.6248512820466412,0.24032761976690167,-1.188800265576899,-1.2364583476093476,0.15409280054668667,0.14249522576183091,1.5164780408215819,1.1641330054206236,-0.047910433560563556,0.50061013292468259,-0.63035789633945494,-0.13760424163314233,1.1188143598751645,-0.94199137580596437,1.1602747315987914,-0.018041711239339092,-0.78228471866238447,-0.13526885891972426,1.2330166996567808,-0.40057080609845214,-1.3171688816932101,0.402708941265705,2.9539450009122148,0.55833521509862172,0.16353597086419869,-0.032852200733341358,0.6590325209704746,-0.5566566817097679,-0.60380305241168464,-0.20726907122292115,-1.3559568192013887,1.1723298175947514,-0.17268622445186801,-0.18383893666746315,-0.63226858254793772,-0.65098478366976775,-0.82252516065293235,-2.0615722726753196,-0.92842016071135636,1.5666296465923795,-2.140308745439115,1.879135647223616,0.31146205735207305,0.57138126647521126,-1.0152864446355792,0.40849316031226851,1.7308118577273195,-0.63583595202842624,0.085956381765402726,0.38449710562507944,-0.24143131608730828,-0.7764148082056187,-0.90089204646592624,-2.0782454950739004,-0.13812811694965388,0.76037472317498245,-0.33385377618390649,0.092961991848581407,-0.73314751720176163,0.26783588829019206,-0.25268591795895112,1.276909852419873,1.1768929027978599,0.11641437490974774,-0.21304462163568408,-0.077389388647207458,0.37608600239979373,-1.319842850453977,-1.3329930978843021,-0.28681239850010021,0.34017183195417106,0.99588514827097074,1.1686963603558991,-1.9737826194894643,0.26441437472115664,0.57396626454667754,0.35859165820120292,0.63643333895633813,-0.30879747025117282,0.30358691477975802,1.2046580323016376,0.0043391533763262507,0.40322564771319092,1.1864467810939063,-0.70549933041300195,0.97821642147619225,2.1934753167635908,0.07115792887706264,-0.33303850330364188,0.54372012578686291,2.4059351285532191,1.5971929294312646,1.4795784296097412,-1.8568541605896276,0.30190998273930564,-1.1894458284024765,0.48757474467641471,-0.28550983650587974,0.36947723623363021,-1.2839639361106128,0.45726620360965597,1.9650639724726418,-0.29186887690542146,0.49177114655326148,-0.82118870623652118,0.13270593444623005,0.95664454575251467,0.086853026182188431,-1.2133499409822364,0.89511384110105474,0.28864195661269332,-0.24735594630052768,0.93022477125453951,-0.038947252413918804,0.69778729189742694,0.072903803125708003,1.9127218837436586,-1.5047655353677216,-0.030053904709721913,0.55933909595612052,-0.39561265494757653,1.1745537541893372,0.62751138821496255,0.45030219170349312,-0.18429508085202637,-0.074324028068692136,0.83478593786758981,0.19532154607854652,-1.8998070469119899,0.97323296288887862,-2.2871806077186245,-0.28286176847625744,0.57950444673187973,0.89607949029938261,-0.78706980640067281,-0.171716032598667,0.15346396542902152,0.25156923296598588,-0.47721616387932547,0.55674366456288438,-1.2596534395561172,0.82035781355524173,-1.3924099595408237,1.5157332610578129,-0.71225946654341399,0.56944817996416119,-0.59756410302859719,2.090197335645247,-1.5941122366151048,-0.61871022166573331,1.2911400517675549,0.95671004809973137,0.76423871134320409,-1.694402753015342,0.19303005552133301,0.62474638475788591,-1.6247420227768188,1.7863528323313791,-0.92037869203641531,-0.79411915358014484,0.93893424337404252,1.6731224557451925,-1.6096663905370205,0.75754055160322142,-0.085689930099576817,-0.1175930553861831,-1.306317057335129,-1.388487213117896,0.47701914072700197,0.027298237347700198,1.5545141695573337,-0.86807404086475726,0.82018748221939763,-1.2924423496080477,0.39044551361925339,0.42293637886542579,1.0271288210458167,-2.228329212598867,-1.2055346690731619,0.41106507077344323,-0.36384674044909787,-0.17016212153865801,-0.63158927883058502,-0.94496903920728603,-1.2460953023612522,-0.22734622559504308,1.4594511846804157,0.96030767863832578,1.6473641245622714,0.0088079514502578168,0.46683470813797945,0.049034437739965159,0.25909876535158233,-0.37598195144514007,0.18940546455011192,0.39814372309028229,-2.0990018594449662,0.9984918554662916,-0.9328969273173956,-0.56898285172221841,-2.2049916093524473,-0.566795486410689,-1.5081171107595452,0.13748547987109258,0.43088278805664743,-0.28393776135871074,-0.7817937255515004,-1.097240635758673,-0.42988509243390982,1.8116374606371199,1.0533012592844657,0.91137630271060521,0.017685545681452058,-0.25435617256894061,-0.97957081910532207,-1.6373577498387197,-0.41163010627035057,-0.26345966443125352,1.2750930124185129,-0.57791332839958054,-0.56112862271724218,1.0347279819798987,-2.125995615767589,0.18427627631417021,0.164912720641682,0.5293732916163465,0.83953099402433373,-0.71815299325344828,0.59452130966733663,1.2967100703566179,-1.2921663694686407,0.36083083412828065,-1.6379405527168494,-0.24680641333263875,-0.73011681043671117,0.48217091387290045,-1.2252209090882742,0.96962612665271486,0.48467392897008449,0.27244238031975493,0.60202573110101654,0.034128601008290932,-1.9794248155950773,-0.70949545602016173,1.5557344539728528,-0.55619341348803342,0.90892717497348596,0.37581749251867197,0.26893006862368479,-0.52138783027572222,1.0751569301775701,1.5741828386817476,1.1078982860832207,0.26026167548238799,-1.2634350019370986,-1.3036538676996481,-0.27279000972624556,0.4119477105547093,0.7474389548554774,-0.049981757229811637,-1.3051614605055015,-0.2330649713898105,-2.2024142533521909,0.75344095729945926,1.7492960278682654,0.58405089349127115,-0.65623595658761624,1.0947207776322208,1.6303670547296782,-1.003852979825546,0.88087245617802346,-0.34648787315343044,-1.1238882095700811,0.12274218352881175,0.12915131673189983,-0.23080440825415413,-2.5681309025217511,-1.1152813963502179,0.71241821268632743,0.72583635662752977,1.0725777560250718,1.4084995741820028,-1.1145598521706841,0.4929029756430911,0.50895786817579058,-0.3901339202836121,-0.90334576678848522,0.36109341636429165,0.3126797619041039,0.037183987202141389,0.62962596845095553,1.2491321584438506,-0.064527335723078519,0.68941935465113813,3.3360705497642087,-0.32905451089446852,-1.5031819024493802,0.024403293497212653,-1.8577426636523686,-1.9395787061211909,-2.5040450204793689,0.18117981147785209,-1.163524562750778,-0.3871437088302091,0.097870768854069215,1.1161991070500241
-0.82252055847890349,0.0025830007052251871,0.11428924843731861,0.40028199126059494,-0.079361627864398251,0.28646985948617842,-1.8002664724991686,0.59935054530695986,-0.52127965596138248,0.84069612178362962,0.43701422596356987,-0.058314351773750876,0.5456732365811795,2.0757055500618895,-0.21335484558504311,-1.3993625122908051,1.5346790400368557,0.11988891034991499,-0.030625884854283577,-0.40416539938096407,0.93084870643052731,0.1339789077991782,0.57528046491136298,0.074345083660962652,-0.38134614711664094,1.157122917260698,-0.90209765338374437,0.91070334706553824,2.606833118472021,-0.47306882405385897,0.11278871645338706,0.31841255462101842,-1.2364844134727717,-2.0503068145028589,-2.0385635364264396,-1.0459305171425575,-0.72781010524453715,0.10151340189682014,0.077703729887488956,-0.85230522178265311,0.40078697779931255,0.15820539931086733,-0.65746021436381163,-0.91375444299757125,0.50549779420181595,-0.89328963314668175,-0.50533890155038774,-0.29334807462289586,-1.6230735734528294,-2.4873681094911788,0.6325057264411581,0.66257891983186823,1.1930674033600444,1.4783442342730504,-0.096306430307961016,-0.43908958779541557,0.12303278534329576,-1.5031180003969529,2.8969796343802026,-0.52292728979655723,0.42644077847738798,0.40552471081397479,1.0751785092927164,1.3172254498409985,-0.064063249439303624,1.4067677866784187,1.2383991677495254,-0.68705603497070122,-0.48401507108769498,-0.86575297701107701,-0.59738902989097487,0.34143525480777814,2.0632999405067696,-0.81746584842474912,-0.38689816510100999,0.44817656548997803,1.5357742149748332,2.2016298951897406,0.076716115590085066,1.4713757316728586,0.92828263778859865,-1.5280835101441081,-0.1658129753590879,-0.347892847916763,0.12565406887648803,1.6298117558391345,-0.41502095110761356,-0.35984626490199878,-1.9046340760260894,0.35637819759805406,0.56814718662666541,0.91802939723468424,-0.74078760051279791,-1.1449051338308069,-0.37055973039917123,-0.54931805599587069,0.71134998986284592,0.40421417783872604,0.79600744120003897,1.3218646984576117,-0.30015368702278483,-0.5640369129513092,-1.0992434752836902,-0.98442782102571802,-1.8533613113961638,1.2607762685668984,-0.32121213243988167,-0.21026805006362431,0.73124557350927644,0.56833626251493119,-0.62514959213004795,1.109165349542927,0.58123161526251221,0.97434105019070116,-1.9214325195327258,-1.1852959513316443,0.19063172965424635,-1.5837328926828365,0.54488298478172925,0.29136230127249169,0.028108304047776488,0.23898130928008229,1.2908907461848316,1.1598873914117012,-1.4753794076164521,-1.3431667390038056,-1.0582577329348104,-0.52304148266642492,0.31037148984303997,-0.32177567499782311,-1.4419013824101925,1.5951590463854821,0.49409987333395661,0.6397513684986923,0.4185248405201285,0.014717677579979211,0.13870003350740251,0.64917872928274678,-0.10790166542112917,-0.44968012792550344,-0.44312471117906443,-1.1126988535744449,1.5955004134964585,-1.4081467671533108,-0.1754702209471172,0.95837574229958966,-0.15757743561565615,-0.30369522374344171,1.248260107165539,-1.0275861218965026,1.9794296786967425,1.0522075075433552,-1.3703290305756961,0.52558951891012251,1.2086582030460769,1.624646728903266,-0.18653469637616921,-0.41429563909682998,0.88598063047300479,0.9159844888406613,-0.062271613735764918,-1.4964270608396513,-0.24770147287407734,-0.16579260214134581,-0.44775670964247594,0.6884763277063809,-0.78686380074941886,1.1928573308177453,-0.45360177896323567,1.8564513291077329,-0.81230902270102379,0.094610143696607085,0.852694878353909,1.1166217421357534,-0.48714331765462832,-1.3470507832626502,-1.0111524823676328,1.0408345593153776,-0.20691301586010441,0.4140332788952652,-1.0688123133077425,-1.4499591089686563,0.90605794315313271,0.23199802347034809,0.60143476252537242,0.25228919037790348,0.43383152363330824,-2.5543570471947947,1.3609292713452934,-0.32039623644722331,1.131705419843537,-0.45653154783194605,0.61960892515260568,0.23221183501183315,0.43521298896436855,-0.37565265026384509,1.2785742357579517,0.15587918725323333,0.70602083779306568,0.6228070826933485,-1.4929403078709009,1.337527702502177,1.8373763657421029,0.053142302463846318,0.064634226024749455,1.3488704184356526,0.10999777935001714,1.2828273519130973,-0.50120018328034954,0.40585206387023626,-0.52576394927620418,-0.54904947255307079,-1.2072090438363765,-0.81915848880944886,-0.021651954962054736,0.63385664579798562,1.418908659655725,-0.67796639151079685,1.174877366486675,1.1231225808168055,0.90891777053893885,-0.37873511745216526,0.85488351665792883,-0.25519825290345138,0.40831942396343723,-1.0259937525490443,0.63116947364231635,-0.31618056994281785,-0.84464820250737249,-0.13964199054026019,-2.0745326490800968,0.020810597498302788,0.94565132332434143,0.71909052706925658,-0.70926377200804558,-0.89355652505567051,0.11774754111722999,-0.043315583041748679,1.4091439825916405,0.24810859609185371,0.47966427089811492,-0.38067864479192171,-0.33141774183548101,-0.67262119191468994,-0.92631453791876894,-0.39016172855568254,0.56431025262547441,-0.65227097654948962,-0.470900773164246,0.098609212315418748,-0.57652723589763466,-0.092369197538982595,-1.4566409167380745,-1.6880330590744448,1.2842210801558287,-0.95733077296723867,-0.4325669052716728,-0.83530997616092639,-1.5525162389640517,-0.60366234346682945,-0.50363808293726386,-1.2073250909742017,1.0157591645278292,0.28532827446728759,0.26030543603836148,-0.73535061191123607,0.37383423772236035,1.5038543322151012,-0.16639060572492151,0.81335475781429056,0.37636107020401416,-0.075643494666673278,-0.93552227028292645,0.20607790752890429,1.092793240761913,0.95317785859420423,-1.0473169219187708,-0.97355832749823545,-0.0079552984919182678,-0.17955278582707904,-1.1284802996745051,-0.18132033471779407,-0.29017831135029848,-0.84142077392080494,-1.1672768579984318,-0.63295087837959407,0.11126161288472015,-0.53535850937300866,-0.022698301922049535,-1.2238790200958851,1.0265028083821737,-1.3363567138028583,0.58426439892134818,-2.6694291769977436,-0.37191074747076702,-0.8465476895835119,0.26321249425680987,1.2720349606681105,0.54403919862174632,1.5408441762351552,-2.306275961256337,1.2935509469822903,0.7186323179502685,-1.1137264241399345,-2.5622099208088356,1.3336553926470165,0.13618263420707891,-0.75380870099822739,-0.88044325242739996,-0.079252685846618667,-0.65114623204592281,-0.017237302460090153,0.61155679925518025,-0.62592862255537518,-0.40004226574903357,-1.3070382027709961,0.79997829820905686,0.015221817971735016,0.61229580016503626,0.37270493532188842,0.99972902538051656,-0.33147769143774197,0.33578770758216409,-0.0050732718452533056,0.21671673656598134,0.58925867824591061,0.13125141792273842,-0.20752196114837845,0.16645558015063056,-0.98531542272226147,-0.71306572429427839,-0.056851998631638909,0.020172884014725927,0.94030142684246243,-0.13140125080185383,0.67888767715195331,0.32250579743708757,-0.065310338696730211,0.68418984750785894,0.87619437983176074,-0.67779660939323416,0.46227812072016061,0.31526973917468476,0.62170426413739399,0.13849330843710039,0.648763821934214,-1.340319377906696,-0.16407406674006389,-0.069453825942321218,-0.76160891887570858,-0.49793704043320547,-0.063935588354971387,-1.5096816251368281,1.8254170795540012,1.5443128009503735,-0.49769730535907364,0.1261904036511638,3.4585003479014795,1.2786706878419891,-0.0035743153398328201,-1.9245129206556695,1.1994469302095236,1.8031033857085483,0.038413850737236514,-0.019424391828422535,-0.36459069638514624,0.17487052317900997,1.0362173614163888,-0.4629308690299434,1.6364896117991539,-1.1070378457081165,0.37312852027634597,-0.021857555972967367,-0.39098571067639115,1.3976912636063821,1.3757448087893853,1.8136603909718014,0.30384282486273728,-0.66851833878438938,-0.28779343813076036,-0.14561918153509157,0.6512473937459039,1.1258274413265139,-0.34387497212630552,0.58085659839447212,0.88092068662735523,0.44661374220249422,-0.85014062604799301,0.82719235062296603,0.28848974133831362,0.62554713665886152,1.5998959578353695,1.7003484671596456,0.73345952947772741,-1.4861462653747086,-3.1040019621392987,-1.2299129238868216,-0.65947324998143086,-0.2537055845211944,0.55306545974784993,0.16756542581623154,0.86334395072030334,2.0281430664822504,-0.10823982775469997,0.50034945246272933,-1.325904855395202,0.69744637683671518,0.62007445296882935,1.0332626278417654,-1.0050390920068368,1.7500995905734409,-0.11665484987848974,1.8920539026231882,-0.64543911923407304,-0.31643571190233721,-0.066156862313567766,-1.2715438021485872,1.1276476646540574,-0.94641669092791869,-1.9478791899635115,0.78655974713950694,-1.1369939237050757,0.7200388963030685,-0.74306480610309777,-0.35388425878811208,0.7461849952626618,2.1008433303647944,-1.6923936111003008,-0.99677075274780136,-2.2074435586028427,-1.3473843812599993,1.6126959769665394,-1.7093413899082999,0.19411286428055949,-0.75780500358707348,1.5991527356296358,0.061554426364153918,-0.66200520411891772,1.6830489637423984,0.63674093304750301,-1.1645903667368951,0.017352991095311226,1.9104577338407189,0.87414850185964532,-2.4701341029568162,-0.68384136092253578,-0.48691683645706729,-0.041552543020457119,0.24863408693570554,-0.31172801406889655,1.3521521381225983,-0.17210530248285907,-1.1530942943560494,-0.42474766543437709,1.5767621296514804,-0.37427936572397663,-0.058378191357769754,0.92383607139678947,0.99267864094403835,-0.0045424353424031762,1.2152656798394195,2.2863606038265587,-0.42221510110286659,0.053021129545600419,-0.30400674511941611,-0.41475146546966957,-1.4502868111609728,-1.4967774758098598,1.5621332200824738,0.75761226096272849,-0.75186388059190856,-1.2505892701118553,1.4217466780263062,2.3684419141022808,0.26096149329468132,-0.14914380315095735,-0.30266274410216087,-0.063602956858115789,0.45213847959275622,-0.5717989604138275,1.4742764204362713,-1.2852946778204584,-3.1841469385863546,0.66413127099071567,0.57076502438717214,-1.8603897105330021,1.5383540692246349,1.0212697090099756,1.3201189101378172,-1.8770886664332969,-0.22720068532782936,-0.91756994889912957,2.9292360233472059,-0.70431038641706556,-1.4290762767142111,-0.62813848409781936,0.68475664238296485,0.0059823373125280225,-0.34774637600690733,1.1052937145202435
1.9361588575966329,-0.94579231397808572,-1.5204787313388439,1.1900713885718728,0.48463419184951928,-1.0692892857248308,0.33208897192950021,-1.7535269864343059,-0.71110468554901007,-1.3206578399126796,-1.4150204757862392,-0.16684795347407394,0.88106193893592732,-1.2493714239415197,0.9149506702633956,1.323767492349845,-0.41068300267813013,0.52847797134427754,-0.61494023498885475,0.27915115611843472,1.3815064508345409,-1.0119647705984465,-1.046753584205357,-0.63718324142294769,-0.32523226078615863,-0.97191206116933593,-1.123902421045907,-1.2086617304702931,-0.09273887172083338,-0.72664227586482666,1.1063160889056893,0.62572033917030512,-1.5662848492914838,-1.1535770002258239,-0.02865677389688712,-1.8504412318361534,1.0209546662555862,1.1196334543443025,-0.74644136635564351,-2.8637655378374136,1.6657085561546856,-0.078336150225676998,-0.89529814682651276,-1.7427166980152136,0.68789417602815728,-0.14461463874846747,-1.2734362611866625,-0.82935445479793402,-1.3122507159934218,-0.51593223452444015,-0.72356655975578699,0.13208887855332016,0.14978386476073641,1.2760731739502782,0.57869996344922836,0.12484629757832527,-1.0072297458618165,-0.12650875588110216,0.16897152829713522,1.4032497367090302,0.61633569660863652,-0.43687216311725091,-0.42205021318373531,1.7846824590814903,-0.6739410967440288,0.099826831551001236,-1.0983751426943043,0.92567324540681684,0.73999723155281683,-0.1135840121070719,1.4986123903806579,0.2334995010772955,0.6928826899831394,0.36403913953113454,0.082293816810853876,0.79164564921801117,1.2487897445452143,-0.12524000397271909,-0.95293417481279252,0.57657156308673319,-0.53400998012696033,0.99362664789171051,1.3323162312379986,0.34243034365263331,-0.3946736588912037,0.16194816331087175,-0.083397658144162209,-0.22647271225033713,-1.4348791259829852,-0.98570849062909416,-0.73987892785605924,0.66185118714830482,1.4584777417373043,0.93685081371913925,0.20021537369868919,0.49799264026926887,-1.7213959053528056,-0.8290784944829751,0.29722447825706183,-1.3965361650448964,0.39113617043770188,0.079346538640044206,0.54653749371823201,0.63496792616798969,-0.79291453087795782,0.27596064512532681,-1.5027426869915688,-1.2719561479858477,-0.50981762855891755,1.1598140802341756,0.75016957975749354,1.3839578122218923,0.034670924878239882,-1.0039366590206442,-0.38591398760126072,-0.65474815915245155,-1.4677387667716342,-1.491665198453165,-0.33205999850767504,0.53446665341845168,1.0644110452499567,0.77338160438357872,1.5511257502481053,-1.1038628198290488,-0.75521053685257988,-0.35648841170183782,-1.213437852866206,-0.68646890398986204,2.6390319336390484,2.1123369889410091,0.20763885918991953,0.090740980828181911,-0.94385572844171828,-0.79168911764748828,-0.85796017357050547,1.5577595361093404,0.87279333448173657,0.83587113346214348,0.41574915105243454,-0.78508456729505571,-0.47612841766091124,0.53368879255088486,0.47747175909802536,-1.1882894496619987,1.8419752633274682,-1.1182967983428083,-0.17613168251381098,-0.91242516859900913,-0.40386409631000253,0.97243896685614384,-0.078579327853809111,-0.56648032344188626,1.4336665357568128,-2.2473209605256335,-0.71394447353380042,-0.4036917494111813,0.059080336739405312,1.7873728019015496,1.0372084545647304,0.84311772716152789,-0.48350317349999217,1.0260204576196712,-0.84534527867638576,-0.84656691187754551,-1.4602043723301874,1.2224126407306328,0.40888723334703303,-1.1169105856053445,0.49309018870399274,1.1648366091686415,-1.9286579189291753,-0.021484037255318906,0.54618804217821904,-0.85653399766774097,-0.36470830800448117,-0.78272361479530606,-0.13668114634169032,0.76432769912503218,-1.0927918070613871,-1.5535643965303503,2.0985839113221165,1.6713039620107994,0.24807872802777228,0.76884105599781205,-1.2282990151584168,-0.95141401368464373,0.26671697430907859,0.37631591890272859,-0.062188071174445907,-0.95130107253136598,0.7346360360767159,-2.038473554073013,0.44764609086293505,1.2801543125400021,-0.038368691940488489,0.72857444444255426,0.9304188720430131,0.10760054640688294,0.099848054675430689,-0.7669190885382855,1.4759020501197586,-1.69848724856555,0.21976768433657426,1.0844989202880764,-0.55082450151655005,0.62258085005839869,-1.6201289417449505,0.16507037110017059,0.16481298184133589,-0.3726137512095416,1.0165615437123852,-1.9769862567387626,-0.55356491033732769,-0.75881080890447383,-0.39402562217116482,0.43022759005794892,0.29238306464022423,-0.81759937819410244,-0.65167878921711409,1.5758299710993444,-1.69965147344322,-0.42691266830850894,0.12379275865721601,-1.2059650509539448,1.0102213304244214,0.8967794720236546,0.10554472737274262,-0.15194955240985814,0.30812130426639095,1.01250358916289,1.4644473356174574,0.74969172571904008,-0.77717798879022704,0.89944365088208489,-1.1200974175776603,1.5788763130399852,0.59824244095045043,0.018214650095492814,1.2094083693065714,1.0034834594498834,-2.3714562211267687,-1.5060539048064536,-1.1575844071127597,0.047650942236523275,0.21896629675599819,-0.89909703154836629,-1.1734650249261043,-0.14162787307923538,0.34702246209012116,-0.32329350428193243,0.5401661816504062,0.8973951973515133,-0.1376085244550655,-0.070372036705472776,0.42357514967583881,-0.7835647311654016,-0.53183190984274831,1.461929822108573,-0.038738687188313733,2.4895042734070074,0.53750822865689185,0.62833016629151683,-1.6621491823827437,0.20366301712107462,0.44959121975259636,-0.33184672603120985,-0.27699959107103811,1.5996446275429683,0.58244573264753463,-2.4849193368608713,0.81460703252697841,1.626114857551052,0.66706697226967504,0.51381939161244339,2.5100613147382829,-0.50609400514359715,-0.86975466440695182,-1.3956878560003234,0.61806441731775341,-0.73808660414338123,-0.82747665222186317,-2.3567966469582258,-0.52316039952402194,-0.44449858263001069,-0.20477281649570678,-0.0089814008000073924,-1.3122807686974141,-0.6200981654739488,-0.66674136097006165,-0.87311823702674107,-0.8974106773911491,-0.743304182342303,-0.40685923802871848,-1.7375637481743804,2.5623050228139279,2.3858294592503211,1.7381826269111351,-2.3710777053408001,-0.78729378134440586,-0.46558836968768325,-0.037141661290788164,-1.0048272340217501,2.1825561565204641,-1.1110260611853509,0.5428425962664537,0.60082663083415,0.6944413086858694,0.15331234369278102,0.32372996135589271,1.1562935756009343,-0.59518892438830262,0.036099731289894958,-1.5049910912690838,1.9821527362474054,0.91681913238623547,-0.13205261953388461,2.4324205150205191,-0.98618241305466936,-1.8504676753836145,0.70562976443942138,-0.6818210403381928,-0.97681465894792829,0.036330807829145877,0.36811183845094619,0.41928208669303219,2.2066631991812988,0.014982527332861652,1.2332319562494927,-0.30267924474890084,-0.55840258194899051,-0.10765093355381684,0.96689431573693008,0.63625612253593877,-0.95142252952742568,-1.2302878654951783,-0.69955281251454304,-0.24805824846264196,0.89543360746849177,-0.16230875992362404,0.40033148120163964,1.3856081326912169,-1.5914770315708839,0.23725960280630803,0.38297576598927136,-0.7238363825870433,-0.85231715667718611,-0.56783227355669363,1.6514082799202205,1.4023093714876886,-0.55642899460838147,-0.33173993002128416,0.24203960613828013,0.87133578264755951,2.1602149460077569,0.34216725182780511,-0.62032784799975482,0.74776158598146336,-0.017529940816931832,0.13272576872808023,-2.1607063454751638,-0.57871801206309159,0.38538496480648721,0.89492764365679967,0.60475840846922957,-1.8763625442692322,0.85739120770606636,-0.87732904511313392,-0.33968948618760603,-0.78026101372450707,-0.046013444001148117,-0.72823296146172545,-0.0072596570330009623,1.3465161714801315,-0.79089912292840359,-0.92616676775789053,2.7938044084114289,-1.8417319233351894,-0.048198713987367379,-1.0620054863317534,-1.1972374608486449,0.38885549369159289,0.52609588134490382,-1.0813755796918931,0.38215856853417429,-0.20487032062181854,-0.21158687295358566,0.19870985455004558,0.48811879712481798,-0.58165710427039052,-0.81405802090994273,1.9566495639498456,-0.68458607940174188,-1.0647519366801996,0.10762022194143119,0.026001062094410107,0.99340930000868533,1.46727730531014,0.028207318933167469,-0.27827456115701121,0.10461056315508191,-0.76063395351063301,0.52521165295962935,2.271534898838742,0.10074799465947823,-1.4225333828392419,0.47926684239920458,0.64604682356448107,1.0323836297877524,0.022136290948345166,-0.60015570634236437,-0.28262281239980969,1.5586263091773165,0.33308305244215486,1.3735698601332527,-0.013035624547692356,0.72838026978611103,0.91367715941538297,-0.2474706263533499,-0.8462913160512876,1.6600007253753486,-0.58675269332002133,-0.39602174304288557,-0.32664348342975186,0.14531259174561212,-0.28672975709729875,-0.64399470544727555,-0.67495039562561754,-0.34903608053482782,-0.29627280689352714,-0.74507608630853939,-0.56314688265608559,0.1759159268509386,-0.29658038726962443,2.2086556706583713,-0.26512751619744096,-0.27354790987774869,-0.039452077900956825,0.96992187429901211,1.4744534343516502,-0.032558890103553111,0.17914223240351515,-0.59282417772542273,-0.19681387577832066,0.20532820667929039,-2.3472882993145858,-0.034860992272554514,0.41279037290874382,-0.5318584605513853,-0.067853205818555418,-1.2687916802081367,1.5849729490949698,0.19450949716772706,-0.26111414217802581,0.96507761203292219,-1.9534558722735285,0.1229364364988054,1.7595896106657691,1.5485381915411698,-1.1877223625736015,-0.43000734611447305,-0.13000600096300005,-0.37543600884483447,-1.1022256993518034,0.35763504605957019,0.15941202192679277,-0.92756902236826344,0.47946297305754093,1.6449674873186035,0.86616518904332296,1.0167267640138826,1.0750866499148475,-0.20380482335801328,-1.8024373931814499,2.3789853423657492,0.21778869167625203,0.97749484641567774,0.41921135482747318,-0.024383215373838595,-0.62776995009474312,0.78094695387831015,-0.2121608915329076,0.72025708417730405,-2.0696074208404389,-0.59137258195700848,-1.8502089309840142,1.3126470034411204,-1.2249360055991094,1.5123289950373593,-1.8649147764966343,-1.439607242654366,1.027891074913355,0.90175281745245139,-0.8442604699084405,1.0545859087305496,-0.7412921445001005,-0.0082305152705146843,0.35300339540046077,0.27629353604664564,-1.9565383497157376,-0.91267682799976535
1.0044047796083975,0.047657347744737399,1.5818394056055181,0.056321929515276835,-1.3406623779568931,0.65640841924219828,-1.1478773382335155,-0.92400472804903944,-0.23611938592393991,0.4019438951722285,-0.77587875861883293,0.10157172019788974,0.62654102191691652,-0.52840659214621188,1.1251442182934024,0.57667372769262515,-1.4577050019816917,0.11779102587283626,0.064620668195970982,0.27063790667269527,1.3791087134744668,2.2757779725707805,0.14110748568159526,0.53820373837988489,-1.090117584957079,-2.5571653589183034,0.29104639658679432,-2.7701837462908752,-1.0938378905745838,0.73459937475792214,0.67289413910217455,0.61058452433726507,-0.17875670093535057,-0.37689249000730685,-0.91506510035406985,0.74710224366691314,0.69836404660442097,0.14983396776858052,1.1446285376445271,1.1621628534579043,0.39643605779311836,-0.40893333989916708,-0.91344735582470393,0.99971441968028607,-0.44307764021624474,2.6969147717410835,-0.56288706445195125,-0.79129232009636563,-0.73533713335391748,-0.66600662361496166,2.2725173492123072,0.5068403200005096,-0.12222182111412569,-0.44673436480507639,-1.1292226430971777,1.5152091373527254,-0.65984343277454827,-1.2414893236212838,-0.73919625610790884,-1.2904593382361391,0.15045506739081177,0.4436405218790655,0.79091355560867282,-1.0700192480897548,0.29680613342884099,-0.51638100532610687,0.75933052784469168,0.6085608723364524,-0.971256791115651,0.33895304895195288,0.3494766169541792,-0.72642499877238798,-1.6369235073243105,0.4869702985714961,0.060443182326247277,-0.049498859700597177,2.1206640754641088,0.3012474726286995,0.57660985463637482,-0.22055463750337831,-1.8611351243777232,-0.26700097197155237,-1.9710143591886091,-1.208920927491073,0.38520400862045179,0.18324542565641308,0.91639415979030792,-0.18988232075577488,-0.1470596178725993,-0.79835395582248903,0.3922660561420982,-2.0480077411947057,0.41328899758217608,0.43983624912085123,-1.7818578113406205,1.4096090456928978,-0.079096016699509622,0.30713142972341556,-0.57818631528761633,-0.72685765073875752,0.22864129483058487,-1.0114244945547584,-1.294742899750448,0.75593221972225844,-0.10785912962047096,1.4152793723814043,0.89489632358366289,-1.3149812641140282,-0.32878944212422317,1.6898207510023564,-0.54157756428108317,0.24325715749528229,0.62453993152582854,1.2359789843270677,-0.65703858602042076,-1.8624028441545084,0.31543457865467456,-1.0334711621710186,0.88822801916070226,-0.69565860544865199,1.4809061560985286,-0.67878355250693578,-0.31969229577194747,0.34067732426764513,0.7248246946120972,1.0295158175085015,-1.0774783121697615,2.1065321108520334,-0.7784607135911108,1.220620347124598,0.019318756012641748,1.6593205910770201,0.15406909729406179,-0.041346078458719793,-1.6741597524366998,-0.80453868197459455,-1.3637060447527776,-1.3242390706230234,-2.3167379671777817,1.6713290254103912,1.3162895464687436,2.9623790556652434,0.0484547022195609,2.308805383812389,0.66817149106270357,-1.3219837998348856,-0.47819069739019976,1.0615398486874141,0.53956998353912533,-0.49129239421026627,-0.48487795858720678,-0.60529990902240183,-2.546338947883164,0.28654264805339719,-0.18293655716230681,0.016315343857208776,-0.52506428234186009,-1.1850283106811408,-0.30923495971841081,1.9396386476844363,0.12549749496230295,0.11032981012400161,-1.1289873436130879,-0.48707480145440302,-1.2439200330016165,-0.31190149371022619,0.59430569807562472,0.075024008897960986,1.5451906058631337,0.30688681924099359,0.68431333497507418,0.65892718151117524,0.14490056870844673,-0.60961665077216898,-0.83044257323193493,1.5025432814737845,0.91032093033893557,0.687278102705141,-0.23396954278621943,-0.31369923207110301,0.18701679269637644,-0.35413864382515248,-0.20869058911053187,-2.5788558380813416,-1.1323476920965716,-0.35465622334101765,1.9260162064750075,0.54060720382447036,-0.43633341093922312,-1.9113169250443993,-0.011684403300347883,-0.13721210173334997,-0.55540900325724718,0.27766022809425817,-0.024280158704032811,-3.1320970556581793,-1.0436264925057219,1.5703968902265917,0.92244563438445493,0.59293796978595759,-0.47106736197517968,0.14526421396188957,0.65346026689985415,-0.29940503480004627,0.029364727040139562,0.011141419757293157,-1.2204019534413961,2.3881627262119487,-0.67293801262513597,-0.35879177925733047,1.1222394173729291,0.62164741532530476,-0.87712423063713352,-0.56524511794067978,1.6612313237283083,0.2673340258660154,0.017654482422035274,-2.2159751220192603,-0.20627547296312107,-1.3666635413521993,1.3067261714400793,-0.58013023372367889,0.066394487906460103,-0.25761625634521929,0.66636056731963389,-0.20706762356034492,1.1289534968305075,-0.67603829640966662,-0.46992899617082623,0.062900162982886157,-2.0722512257540582,-0.59160638383152475,-1.5461913307761457,-0.0084822765727283322,0.23642892882606437,-1.1401884855137918,-0.65447157979017356,2.0747206764873218,-0.59145168128463321,-0.065586965380967366,1.7705760776268475,-0.30971740249510049,0.084842834381024648,0.77181162438054296,-1.4540378940173606,-0.49245460949760567,0.42547965525617337,0.4879169037072042,-1.0747650949894636,0.80222609007920198,-1.6139760539857526,1.1469320484990535,-0.2651080245686192,0.10005747317637455,-0.71984324487209594,-0.27885362108746253,0.65897139308895969,0.46790546596141974,-1.0406792246668499,-0.95498303897240533,-0.46731403550957434,1.9160294829377962,1.4855878332809669,0.0319944002143022,0.38728440249037421,1.1488927838421481,-1.941642720110802,-1.8987764356564905,1.2998547125034094,-1.1173999471820995,1.2475819713367193,-0.22141222328486926,-1.0990704532509894,-0.28656012440406337,0.66304183941688044,-0.88289919558196106,-0.017592948215018361,1.04185789588189,0.95317717694487436,0.24886855913936096,1.1859933261570739,-0.42788832067566202,0.49624265788462801,1.4618952858788823,0.15618444482543745,1.5962259907626137,-0.27622017396198395,-0.12426413890266506,0.44173691625511441,0.65149479274718758,-0.57938711543097454,0.87725166027378854,-0.17281824810709578,0.014875358455343064,-0.44921665135074701,-0.45182946716106864,0.78018663706140257,0.56165990231220597,-0.35445321392410239,0.23412256275068072,2.0690038814183564,-0.69109754475870366,0.8504997643388047,1.3299952292765169,-0.39811760123271228,0.52561502313732478,0.79311903237471393,-1.1904268130489299,-0.55513841658477381,-2.8036867937595606,0.48754593654662165,0.4170473737808798,-0.64374054228694344,1.0537240688107106,0.29610205125539946,0.21088210556239043,-1.9380805667008694,0.70648852882638025,0.72349676858435552,0.15536920430168763,0.018710808222241204,-0.93673247916025004,0.45296585279333695,-0.40741389117317511,-0.8410704875175864,0.50704791335046207,1.0843496794187759,1.6969581492091392,0.2562290271446212,-0.080587107821837436,1.9456734388090478,-1.2768718034302158,0.64335130786778016,-1.0488490149165197,-1.1618715563042008,0.16027069035583619,-1.0842453702189174,-0.64220656400097886,-0.66971597575843289,1.7847074261214908,-1.28346725401312,-0.79995189835112024,1.3973462876742968,-0.4096952145484673,0.1460476923324798,-1.9214387124506453,1.8979293639444099,-0.63707551613550806,0.49113624151292684,0.11922302435273568,0.90959280612813231,-0.99615177628518081,1.5189320532460231,-0.36157220532561152,-1.1547505917716299,-0.40813440629119402,0.38894084940249368,0.13397876335378905,-0.51659428434625909,0.45531152557605792,0.3345356714087987,0.74085508161180313,-0.22494789186327271,0.37393215903583804,-0.52016559369301618,-0.23445612314161809,-0.46476856606201078,-0.65136134637807341,0.8201440378812016,-0.87733321222928051,-0.25090792710147142,-0.83981840283855602,0.54847225021192192,-0.14893245832650923,-1.6064114795995619,0.62250641519676309,1.4669375444728359,-0.21243944595317096,0.4786074058392295,-1.853182659432504,1.2970487119797312,2.1887049650867629,-1.0704191476813065,-1.2282253743028673,-0.21173293494814341,-1.2385026970795259,1.5060187033462094,-2.0161371248679085,-1.2326325141030343,2.3569973466179723,2.2482670653234593,0.080066557766936552,-0.81325216273547096,-1.8371484398636304,-0.014968655049494099,-0.011050374610550102,-0.21082181617619622,-1.1365723091559208,-0.22591338367215585,-0.95878738678085174,0.45867545905738599,0.44840772305533994,0.59015793461099864,1.9787325412318002,0.34014299228184458,-0.41537186940801629,1.366386486091719,0.53507848379047451,-0.15504049916659879,0.18869898726051518,1.8310959529919646,-1.0324595068320446,0.24624082983749757,-0.56378692808872333,1.3649345811095022,-0.046194981890858342,2.5032947433720172,-0.26175901437951532,-0.43333558516542248,0.17099470942460349,-0.77212491211041345,1.5701606070864902,0.51871497824213753,-0.87388498242172163,0.39939067913661036,-0.7147347881008651,-2.515231631446321,-0.078348772868976693,-0.26732288836178542,0.25655518712148101,-0.39145965079377798,1.0157852488438068,0.7732073434973451,-0.060830076106945394,0.30968743816928818,-0.94817750273527546,0.38151926290705235,-0.91494966368126118,-0.97336957607538277,-0.63559983923561858,0.52184892419036066,-2.2881025286806804,0.180465284787377,0.27675329719341113,-0.62476369248150432,-2.4074097315485217,-1.3682228552398472,-0.10438239698077599,-0.69688368072389173,-0.49093169254173319,0.47404590105446348,-1.8438515964322939,0.75635354177960512,0.7621071839123098,-0.19200677421714948,1.8403611742936079,1.6188982072066587,-0.22013381390335712,-1.0791737562864403,-0.88654751849743496,-0.4755359119301289,0.94779382430218306,1.7386270244021913,-0.8827670814150933,-1.1603324181825927,-0.22938849725563906,1.9810709656603582,0.94897906528807419,1.086442741992121,-0.27925363769075184,0.86340356343516333,1.0554394422371585,0.29854258659955296,-0.0057664273788518667,-0.19687087772576115,-0.84426025381709691,-0.6620653473446394,-1.2463625829027034,0.0043470021365274508,-1.0504904049477695,-1.3955910891340471,-0.74390475340738504,1.2532433901162441,-0.91775235141519995,1.8171608031775888,0.35038143741549538,-0.44759155857472721,-3.1457537055665634,-1.8585698839138871,-0.28493033582140725,-1.1367770133829664,0.38185436976712095,0.73609175660331927,-0.53664418168305827,0.81387469739081764,-0.01043373802609961,0.81819263384062768,-0.952114218688628,0.4951217972223268,0.053758728462496866
-0.33511248129257831,-0.14994840750146243,-0.34962994787625667,-2.5243972337038407,-1.9331171316993436,-1.3367001566358843,-0.15406561012838199,0.1624433878119082,0.33889856033586241,-0.059320217536354462,0.28950397228881281,-1.2832060944039061,0.85556853300981495,-1.2674411826262961,0.45633990503676103,-2.5223900840293623,-0.45758351005932596,0.71985343170891147,-0.40966296660083268,0.47338409419448491,-0.65146512780793542,0.7673747135751785,0.30270944062617738,0.65173333783580401,0.50985180144541142,-1.3143644112181445,0.013952033191923499,1.4277893253479026,0.22198706496644419,-1.2739688849826556,-0.31100006945139308,0.020001357124671295,-1.5243964672456332,-0.70931195891624754,-0.56769109402750106,-0.53639526838402352,0.92018708574258479,0.14597989065184624,-0.95828257891558621,0.84471318324281786,-1.2409633791245338,-0.068593939761419656,0.47136123165964411,2.1401270511330743,-1.1174583258849529,0.4608755925491691,-0.50706954668092485,-2.109628168966899,-0.59856703278116474,1.4332408043140115,0.83106604707249376,-0.57369296330436736,0.5459448538224414,-0.16998253892052134,-1.3414577403418346,-0.062268044191196477,0.12166464719933291,-0.11214829523199524,0.64577780289342268,-1.8327971727833261,-0.36138376665549454,0.58070177042986726,1.5234790756194609,-0.32197376805896005,-1.7330131911932232,0.24145179450859364,-0.29571193575610066,0.17252736893467369,1.028306587542489,0.91548380821004394,-0.79126010051959139,-2.5314741619476044,1.9755675811226339,-0.42749418936700168,-0.48860092389301457,0.83358647371749761,0.77171060594500629,0.68313393969143221,-0.61409516419160504,0.77974129803738057,1.1369083124355166,3.0478209280161273,-0.094591210450402183,-1.560285953306713,-0.036925023917873986,-0.20631967460995509,0.030026399657878615,-0.51983146792314039,0.21941012673260882,1.032300079674346,-1.4207043416548137,1.302323350961603,1.4379153402772582,0.1431375692928559,-1.4861850457852159,-1.3924689645297053,0.44402856623572917,1.811048353058343,-0.15982918249095274,2.3928464834020811,0.04772822578241382,1.1529918045470728,-0.45880769549534406,-0.43218629287939553,-0.18305575608466407,0.32103475156022215,0.11585425545166332,-0.71978903814820039,-0.60315777270644921,-1.7337448010079275,-0.22060603243359497,-1.118991619254516,0.92813562730465893,0.18650784196926931,-1.1884784445813279,-0.71843516574606314,-2.0353113605919551,-0.56276966025112329,0.18625470282129597,0.94405497034188557,2.0989189267375137,-0.11031968558620879,-1.0110891221241003,-1.8221435909230688,0.26119877300324712,-1.036234708221347,0.88188282860261979,0.60283125346915145,-1.1463919323267864,0.49693466181561868,-0.32219232339173326,0.6687881358602199,-0.73998420910840224,-0.6877695468278745,0.19859424438893367,0.30576880730306943,2.0794668408836183,0.92992586141853273,-1.0186259270440368,0.31950268074478461,0.62549129534044656,0.19468365894255674,-0.6786331759968236,-0.11526087792013,1.662892747697817,-0.43509844844555351,-0.76014914975117431,-1.7681644792591866,0.39121186428345256,-0.51535873542137389,-0.13586445752624615,1.3663092489589632,0.095055332463182665,-0.96116372546713447,0.49399469200767965,-1.0641268131868642,-1.1985058210638455,-0.050707104289909592,1.1165540869741077,-1.8953585820761529,-0.050668698243389307,1.212289709097464,0.001095190913291364,1.8556550067007849,0.011218195927894447,-0.97725225121972847,0.95649870398310899,0.12506162900255743,-0.65208460029392434,-1.3587535441663083,-0.35011729042283202,-0.4126131419544552,0.36613851784395524,-0.31905560370042702,-0.31540369373962424,-0.46215797481985138,0.75588778559530112,-0.90356941191891982,-0.66378550905915557,-0.79967621604524874,-0.41981540942714751,-0.98878160061898779,0.48080465870856187,1.6538868949443541,0.2029559934440025,-0.89950768008227833,0.12657500460139098,0.92464133843695373,-0.63198196825680542,0.067172509607341543,0.78547327996203009,0.72541346876434654,1.082138368458353,0.3258648102780467,1.3492783436677576,-0.25905964048019881,-0.67730735123298225,0.90349923253536235,-0.20808950328744358,0.0041607801963840299,-0.42654477778595828,0.81021186162963865,1.0933000845505532,-1.2000942277587447,0.75252362051425392,0.24194120770885713,0.73511009443513187,-0.23626662844098556,0.029927553987472193,0.079479283440945334,1.2676008434765467,2.1066798300961214,0.51090672265984649,-0.84989016460669187,-0.98644868990156798,-0.15846000243904904,-0.78382261722897573,-0.69657783946835838,-0.10370758945272127,-1.102710564556447,0.041858786529801829,1.2558454539702788,-0.50837335193502076,1.6419639371350949,1.1630303448844206,0.40606955422080221,-1.4165824646111671,-0.060526101036008619,0.32711626769540197,1.2595852785377626,1.2213269940827787,2.0413690015294894,1.2593634561472282,1.7918994142878637,0.6607342757818061,-0.23677267206015642,0.52533697459481521,1.7665481054841043,1.0641440712236812,-1.0362970598371724,0.94927762682231842,0.70072062149450765,0.37832030851121795,-0.54463487991931969,-0.89571655880918921,-1.3168180996315249,-0.091916246260897116,1.1907829566012593,-0.47498863619485016,0.36147255516667232,-0.14574379390295983,0.26836858597220248,-0.50836785013000585,0.51413787281296064,2.5622914957755865,0.5719244549414606,0.51719385596700496,0.1815274225140612,-0.67296789218699682,1.2939930207372305,0.31595546443548606,-0.81964249957115809,-0.97652407712931633,1.3802768258456986,0.18642629124773702,0.97578280108212967,0.6122564876918164,0.35302980886195728,-1.8574700734323308,1.0015696362271964,-0.60402402994403193,0.66066838918009652,0.92726698236737648,0.66826026495017166,-1.1570012613944944,1.3508384514651708,-0.675985567308661,-0.15791091932811971,0.13927172319729633,0.11231079342158296,-0.22043022574806667,0.78822650671038541,-0.17871597397055849,-0.62211706938152833,0.3316485732593929,-1.3923951826534295,1.5031331984060647,0.14435075297606034,2.0548213119289831,-0.71985801900543012,0.22480420548196894,0.82235551681845787,-0.91269513080505071,-1.1293228371254256,0.91941915961321086,0.63660203290429784,-1.0373475353370005,-0.22418234184913899,-0.21691584114781626,-0.46405661396414644,1.7217891392140356,-0.20150513775821932,1.661856151618978,-1.5986277445386663,0.1114366672398594,-0.18564459927754329,1.2672441516571062,0.71007700426083842,-0.37354280545575425,0.65922717712127998,-1.0040497002566346,-1.4463410211197918,0.13602412233387134,0.79927933524949513,-0.55633946305301996,-0.51612820551541017,0.62737594550045506,0.55743621855236736,-0.032256650777832657,1.1171020148085715,-2.197442829333609,1.8989462318871215,-0.83415869535205067,0.23279515573428253,-0.085901401797809279,1.6595665697132795,1.3710537848005551,1.2124797304788697,-0.084912173998915055,0.51807557136669669,1.0369526690408739,-0.081660144593410852,1.1111514544925376,-1.1629998199063105,-0.89943034775258945,-0.23039821855159903,0.83530779109934095,0.1276916767505886,0.68166359388486764,0.36502414384064202,0.057791796236954331,0.37317789032561044,1.4280155531959353,-0.3870644708281768,1.5500304474511777,0.52477537247259942,-0.23519255159020577,-2.0336841407310935,-0.72460954162341173,0.21478008211528901,2.050695627693591,0.42239377182705207,0.95752519544235082,1.0934979482613496,-0.59470471456145213,-0.31660572080845462,1.4578014590489912,-0.88822198881462866,-2.1092974091222958,0.81125588985069119,-0.65822408400247312,0.32593458560593369,1.730014449331007,0.45454334487789877,-1.6345023654745909,1.6142737131510398,-0.48576873310183849,-0.61519042894472498,-0.51687918025653146,-1.1055096167625766,1.0506259586626281,-1.3713140837770668,0.021576485022686678,-0.019370302640231384,-1.3823897270403698,-0.48816152488403575,0.69545962853057186,0.6479546139444573,-1.2672585148373121,2.2204784305537659,-1.0201173530768333,0.35744160438552197,0.27945831579252639,-0.10625332511471865,-0.12514381979954159,0.43058869597547422,2.41747516427453,-0.37914845174700862,-0.25027910410775939,1.0925000220308978,-0.53400326570050494,0.24814242089760011,0.17127576550058135,0.20389525427548191,-0.17186764699911777,-0.039379266929012384,-0.50353231805022602,0.20425524095837833,0.81988112830586557,-1.4612432371051227,0.2451375681160835,1.8004785840174133,0.95098454503903462,0.60391741451780145,1.260331826699582,1.3034148655790638,-0.19825944906267165,0.20555314964029731,-0.68557929279746754,-0.8880433612278581,-0.028433604378644943,0.81132344684068847,0.45590229972326007,-1.1724725156359821,1.3057956108712865,1.8929849345576026,1.7680950761180683,-1.4494955687373783,-0.41196014372353307,-0.18740973809166722,-0.75443567455882521,-2.0102943786445557,0.54025085526353556,-0.55925856996171097,-1.0446447323283201,1.0564273667973629,-0.91820418171356255,0.37122727297659364,1.0304791205914543,0.11045831953533246,1.2430742048752041,0.88598628843594074,0.22995794333185962,-0.27619757768666781,-0.086779604321518863,2.22097986585546,1.5611090305440212,1.1540696581022138,1.2783855912591022,-0.94514457680762765,-0.13331958563156232,0.90314250615324521,0.6038052675451443,0.48157253853010057,0.74779788476746634,-1.0202826169167141,0.11822549055162745,-0.32636365038924209,0.46743518160196523,0.40819070493099235,-0.50566817311853818,0.0071200220280484994,0.7201542155742785,1.2025219990650582,0.70866459144952976,-0.05014986848784013,0.16779133220742201,-2.2997570748556733,-0.83065381617728429,0.45682272772363947,0.35697722515781433,0.22551102189533662,-2.0441681377337608,0.26214277196551528,-0.28432880792199555,0.030185584858177839,0.76150723435791878,0.51991219436265268,0.95716378732672225,0.9106070890200787,-1.3652275347062499,-0.23144348688636071,-1.6106813893681957,0.15215751231966765,-0.12292226463764115,-0.65516404879800616,1.4774681351470711,0.26235661673534227,-1.3112956500426345,0.17986318931265044,-0.86361192686737875,-1.2684698372526384,-1.9060937560005604,0.61136866919913457,1.950204338773188,-2.1471663038425697,0.45093814031830942,-0.072655434306131694,-1.3898760336764924,0.073305401306095377,0.63783724808321263,-0.10800332033006721,0.37250826960584221,-1.5860530314164596,1.0068487250992395,0.32171665882716605,-0.32540272751394,-0.57049489498855122,-1.9076591129518505,0.66968961881996891
0.70250732181304665,0.39916967615805699,1.5158576596957201,-1.6922893817500237,-1.6624991840440924,-1.032764527944904,-0.48367763270807718,-1.3901419697249731,0.2577669247209714,1.1197379482297902,-0.55371874458503068,1.0713479830158805,2.2564701361765227,2.9369599137119931,0.87044650414659031,-1.2282881336408364,1.7259484101901736,1.8121760574122592,-0.98041806822701782,-1.3219014650880232,-0.37546492487342203,1.3376818900465406,1.8732963349332274,-1.5509658973790164,-1.2501687486113979,-0.1745732631528332,0.080874535842624634,-0.85210088075285495,-1.7547368749402261,-0.54858802654236871,-0.62821176014307656,-0.81208299644928661,0.26203649818562952,-2.7400023500384658,-0.61051674186468152,-1.2727056725865624,-0.11222993544635858,0.81090782950144713,-0.067917813822676171,0.3555057313129345,1.5842616836002914,0.22599677835755333,0.86651313812495567,1.3928399222601493,-0.85051194658035179,1.5074781962697616,0.93994575262975943,0.67341484579353073,-1.5556625026174786,-2.9332354534014069,-2.0452080180625827,0.9069993270069624,0.30794352975233308,-0.26062103890203209,-0.87244014951676463,-0.056789783238520845,0.20270490577241587,-0.41003246891201972,2.0212123257136292,-2.4772486231970547,-2.6854029796407408,0.99900261456109662,-0.11470663658733143,0.90465063004476076,0.97573422332585236,-0.96288740671578277,-0.26956398860368613,-0.98902580837365828,-2.0731562621967377,0.22665928410462383,0.36349670795184624,1.0229638820343687,0.10941150994005353,1.4533194519570063,-3.0422416379106716,0.80955652127968503,-1.7106803549432423,1.3216692230892506,-1.2804314802340668,-1.3168451327485822,-1.7118621857400358,0.41032375100332108,0.057847690692248856,-0.72159704961917104,-1.1046964088878781,-1.9942688193865472,-0.28279182649077189,-0.62811800569022824,-1.3752472825513202,-1.5221428334183877,0.16599288926952413,-0.58404387013867931,-1.3896791138035987,-1.4608745041034663,0.061127232959549756,-0.24837335754659232,-1.0305682671489038,-1.5454159393842699,-0.38689374689734812,1.7467744938399876,-1.6627045181064855,-0.6522997408083101,-0.25910858945616283,-2.1405870245417398,-1.7740233133511021,1.0895513573202218,0.7889644030544295,-0.27570913671560532,1.1812747066553733,0.27687907962184449,-0.988698227206251,-0.50125782818785147,0.25216625066751508,-0.91237855059431439,-1.7903885226682583,0.005010617772353114,1.3359438502752645,-2.0350264629312109,-2.3429577807893298,-1.2465038568546034,0.32403523495425313,1.5272512480315741,-0.44063902050491005,-1.4556042575294854,0.9416492651516527,-1.3220517458261936,0.60002241889396513,1.5704726964432774,0.25061813017276818,0.8458802492189238,-0.11360940356808898,1.0406711540674789,1.0615578093744298,0.5676361349828728,0.48669954005018962,3.159209583265536,-0.69135234704355064,0.40305188910872958,0.095250914730267588,0.42812445793251896,-0.34846731232515193,-0.96647877978885943,2.3969394350701796,0.52884754823404856,-0.8758310878084804,-0.23172697729014699,1.131116765958232,1.1778898674069069,1.3064230030397133,-1.5472941384994496,0.99142602760375309,0.55382484812485588,-0.24002129003227893,-1.1242284635065367,-0.4496802865440323,-1.2870502153029013,-0.90287994542353422,-1.7405901869536271,-0.46199166693830002,-0.078726413767862755,-0.61664755221551115,1.9176501714865188,-0.012825781845848174,0.18591295099657199,-0.27773074192829594,-0.65457230057999982,0.2307233119436338,0.02854278221584693,-0.51976875330021033,1.4722395200523071,-0.46612492291931962,0.38277034635741841,0.0011208062810552331,-1.4653224758880015,-1.9138143872171796,0.22348038297494963,0.72333091167067842,0.41781659013916744,-1.3884093170581338,0.27605125065199565,-1.5946467382736429,-0.15897182988688549,-1.1181865876412458,0.066185726897288563,0.36526367320340841,1.3714706326900754,0.44760334532407975,-1.2864309931683753,-0.60045391672109616,0.38686756903992936,-1.2059319517005487,-2.7410264693113473,-0.12613956408654101,1.1450619805128404,-0.49862407504066142,-1.5796339156990822,-0.35313136600661932,-0.69700134310956674,-0.061395648550010437,0.71188608408925103,0.1404678730444851,-0.93868570473409463,0.64692019554853741,0.31293039269400758,1.4704575373834579,0.2472130687622871,-0.24816727031058433,-0.69828584761581514,0.47300561947294345,-1.0096167234136,-0.18823922904466311,1.1523474581136044,-0.52680941549966476,0.21864452715193705,-0.099565638519745231,0.56292315569011142,1.1338412883757603,-1.0572361819313625,-0.29538416252077598,1.6485004172650599,0.09273601929082223,0.13699281005116035,0.071976639548302038,-0.91043978438420525,1.2502076001089375,1.378196180527276,1.7846188770467153,-0.43919213289278891,-0.38332015391907898,-1.0404471272279163,-1.0386875737424406,-0.19974356169222024,-0.93989053549193724,-2.0494404068522991,-2.0569751875809743,-1.080026121651231,1.8371587454643785,-0.29746670849121071,-1.4758533103700879,-0.98401390215009821,1.0801462516076246,-0.45766093597835755,1.2015852329980958,-0.79010024764866171,-0.24409369583102361,0.14456854957907544,0.71505014375318643,-0.25082818087064762,-0.11397009903562719,-0.11194199884525871,-0.019291206571658604,-0.54471521888707697,0.071070167541520693,0.54287885604211772,0.94284524548755111,2.0623630656801542,-2.2670231628259034,0.48157354390743207,-0.35565593336800544,-1.0645983574694455,-0.36174490875828569,1.1214639011895922,-0.62652723208993322,-1.3091383656167872,-1.9287408506090096,-0.082892216317411338,0.55703140751641311,-1.3999612973540885,-0.35572132329771888,-1.2500237562844849,1.4865518706504157,0.12416570108057129,1.3801263650087259,0.017431224391700927,-1.3116105915193053,-0.71860119335587924,-0.20446485421763497,-0.0083032500447717348,-0.81364440035933894,-0.8751162675837435,-0.40595048928457539,-0.40271796599134746,0.4884703122893973,-1.49680007340915,-0.56781130721180761,0.13522041848355718,-0.32949998732767721,0.028029119301050561,0.10888958484590068,0.37819809458962556,-0.86240732322121172,0.21796120911366873,-1.3522241376049726,-1.1670036543919653,-1.5368981965427242,0.22916278246351399,-0.26152518047071355,1.0909873935394772,-0.46023560863264573,-0.91752727995802608,-2.0829016980922019,-0.70823434960170994,1.1910564871900331,1.2725575264774462,-0.10292804261438414,-0.54944362746585229,-0.96418989790972964,0.44472403611660311,-1.6685582121127538,-1.9627938425115536,-0.28633613800298402,0.070010542623004643,0.65329086611071696,-1.4400641072559515,0.055068692484371302,0.010114044248111251,0.17786435882490162,-0.94699757318597777,-0.80986684962003819,0.1560380876856344,0.11078898890773742,-0.047875168829331953,0.62797775391941002,0.086741500494711063,-0.73536520954136098,-0.64284092288753036,-1.2898045706164716,-1.2277992311333208,-1.2175004314831415,0.91049705948709547,-0.43685203670170103,0.79514760828296516,1.8262625208517007,0.61736231664772412,1.8239058164450372,-0.54577398218473971,-1.7886879226432859,1.2029796890792364,1.2133524071908954,0.19195435859835189,-0.38740895125307789,-1.5116272011072576,-0.17531188726914657,-0.82019111766296782,-1.1897141497583956,-0.83253643054709536,-0.096689935951916203,0.27031224709376594,-0.2025930609423901,-0.52272376370063489,0.2562567309032735,-1.8449549110568892,-1.6909482001813176,0.78408224832347362,1.5549969479349077,0.88295921982705383,-0.83968901316078515,-1.0841785612909687,-0.18613577203608303,-0.33651794896499337,-1.1934664997624045,-0.15972807260603411,0.15270481555210896,0.24205467691469029,-1.4728606569617475,0.60477627172069959,-0.33371297432273722,-0.536746503900974,-0.71046401301320605,0.56654675251257947,-0.30636637269580247,0.22660745018106895,-1.3311810368603862,-0.41302223106972524,0.31581569563643186,1.2187686086207301,0.60214986695866313,1.9843839438606374,0.85806431040824371,-1.2304534980290087,-0.021538022018466531,-0.17198155633706477,1.4063647015556284,0.68097249735283383,-1.4942994953420343,0.53456083657676179,0.79698989085496463,-0.23376958265661094,-1.0011050614879062,0.97618721227044125,-0.21138565958775285,0.94763880704089942,-0.85676677773578069,1.4092313244656507,1.6264500360451868,-1.8942717354115801,-0.45460582578644787,-1.4264696403939647,-0.2038919392345265,-0.016977365846292752,0.090180054959208708,-1.6426895016575758,1.4649646237474743,-1.4113654678078162,0.52195836463553835,-0.93987312077383056,-0.81170275260388847,1.296280688355905,0.10966266057280441,-0.01477221926010331,0.42682231235998808,-0.23563376015455362,-0.075036145229656639,-0.050421157532920112,-0.92747210434389382,-0.2963327024213514,-0.40531479335425946,-0.85489976883222896,0.61446724135618003,0.30894689530220343,2.0354698351356437,1.5118579375365611,-0.29795030583705451,-0.047739533416747741,-0.95753552216225446,0.69114682044029574,1.7122453043539321,-1.6864975511649045,0.98066874312504593,-0.12662153196737536,-0.76503544275296265,-1.2517934755759668,-1.4109334829932252,-0.098292240395083219,-0.033165675737057136,0.14309064201921784,0.16625625096807992,-1.0295077112131925,-1.7468815602285219,0.41140455568466949,-0.82826483318262267,1.4629647788467235,-0.12700713777195866,-0.64588442988661132,0.6680042955079063,-0.64626205188371244,-2.1142247425823277,-0.40863983068574838,-1.3180249857535431,-1.639734128132025,-1.2937548759667725,-1.6839372091261755,0.19782452236023992,0.81164678128077306,-1.1474364082704385,-1.3566040226551459,1.9414858498026883,-0.65428724733143862,1.005556475692519,0.27071651359318821,-0.5035780429327178,1.2019960535204277,0.57161230124144335,0.72159735810226566,1.4698893872957191,-0.63077945494036403,1.1170358044818056,-1.3578007422329021,-0.99596174415692773,-0.4506075754219821,0.5920777111444997,-0.2215128563576842,-0.53706637939416302,-2.5016214868525286,0.1051279915468608,-1.3041725215565252,-0.25912342890449541,-0.016635278223105381,-1.8294158008875674,-0.36350847259997499,-1.4871765265122809,0.67567289502044614,1.202901379882179,1.3447479065629309,0.22435865874317956,-0.56542406545713952,-0.036302232317390035,0.15817208598245175,0.36211196443938332,-1.8683551520476207,0.20962831702718618,-1.1264121149162762,1.396695331806999,-1.1220277717976446,1.1022467703234222,-1.8014162308963177,-0.68880824690557441,0.88165590142833239,0.70902291395692285,-1.4844025040067772
0.66176699899895386,1.8582089140754601,0.27588828871268012,-1.0348604405851674,0.84771399437452999,-0.16441545466920993,-0.59420598076426934,0.60893844594904367,-1.1763578635039027,-1.8128882483540092,0.36995192760596279,0.5395907385519767,0.34833369026877015,0.72548060406523351,2.0570843097309206,0.78828953432510096,0.95590192109585537,-0.53828256808607367,-0.32162284678091752,-0.12776270226921063,-0.38173009722514251,0.0066789842987729636,-1.0259220588937297,0.072648348331625354,-1.9768605232333631,-1.293275172607893,-2.1565645213220814,-1.8758813233253451,0.26749137226893055,-0.99682755113433652,1.3075192024338218,0.50908977093165086,-0.73234748630059732,-0.010777187569748726,0.82792843567921137,0.80815614471209163,-0.58808546328700495,0.14268594162625658,2.0030899779884819,1.1637651685771391,1.364648207697035,0.71981885281259161,-0.4956084890987898,-0.77508650996073214,-1.2390690138633604,-0.20338628588584826,0.64108177555140478,1.6647992444846462,1.1294720878791431,-0.043653273117837225,0.40953484142783586,-2.2885650546394039,-1.5322634052713344,-0.81034270366116379,1.2552475039500883,-1.054764909050083,-0.39135396651007293,-0.62267967260223422,0.20569774933942681,-0.87152136000479541,0.23415812977423156,-2.2315584500792265,-0.33407133052983773,0.55812794161450763,0.13870700397883762,-0.82015686494666895,1.8365335348016321,-0.53091824565216206,0.58006106238521971,0.24790213593164601,-0.17369042203658627,1.3432951327256411,0.4096641431653702,2.0957742808060984,0.40931577683200654,0.36139723668862844,-1.3059157219403503,-2.7150662265021706,0.36360057688414432,-0.96168241799291654,1.540698098021932,-0.89446554343982998,-0.5766016832884775,0.91503542029954876,-1.0782591454381536,-1.6486107086581727,-2.9552400377730801,-1.7464875229343497,2.0052093958138388,0.85127452185047003,0.56249140582179669,1.4579390838266915,0.17359154286228742,-0.33013143665114458,0.98439691656854156,0.40252242670012212,0.53622829271131534,-0.57068694403852982,1.2802616868643881,-1.1507865179253334,-2.2480572501965175,-1.4194012318614186,0.93382627352285508,2.3035726945005517,-0.11650732658014167,-0.16710902504520175,-0.64790857379647759,-0.57311054919960669,1.3667142808129173,-0.2111449282042748,1.020625874946989,1.4554473241971981,-2.3773173554384033,0.9809835529062455,0.41993496470538683,-1.7841182180552333,1.7137532851064796,-1.733458021931525,-1.3387081350523931,0.60228196000980472,-1.193929906337299,-1.7040502588847262,-0.20090732834023872,-0.39217263981422018,2.8186922700591004,-0.22157247915604511,-0.4501841825420001,-1.4564230708192836,0.23781989970309539,1.7319191512924295,0.65693057562670065,0.66111426438864407,0.48841270368396633,1.2197789148268749,-0.58186861340041784,-0.85738844885224952,1.0128356183164433,-0.83144842983812572,1.55871696164924,-0.53690500279128917,0.32419294509033092,0.40480471457454903,-2.2529817469282469,0.96491288906279371,-0.024501458888655538,-0.09921074019134371,-1.7652987968498832,-0.2440894170666201,-0.67948593695969217,0.054858562619853966,1.872595099712336,-0.27272444294005327,-0.14329694869922716,0.93390238628747857,0.74515994564539323,-2.8971890184056179,-0.64130691627289493,0.33282590690515224,0.47689915015954848,0.58856174375419867,-0.98067360352914668,-0.24417590192343094,0.092663001448581292,-0.89756535124285597,1.4687452044127258,0.90027040001950409,-1.5388673722770478,0.64071203403135146,-2.1867354463242337,0.84305402456680378,-0.32599504157941622,0.21319076531105477,-1.7401184277477373,0.43809491961829511,0.45245507798631696,-0.23986877862229739,0.8743675015504766,0.31370687934682562,0.031000125686799142,2.0557797654944672,-0.36190472472762442,0.8959729956469169,0.22477493903082943,1.3371142534695073,0.35998833988236512,1.1349306421553911,1.442506365554783,0.093723047981351032,-1.611765961826592,0.8373252815026867,-0.61861053447453496,-0.14194931327436677,0.009645131955633296,0.50769174375603099,-0.61429138353809576,-2.3748144944190495,-0.1215141396676333,0.32166100601635089,0.70023445236938553,0.82667843002671149,0.25904975520268347,0.24269999232985465,-0.60090655376038393,0.0014131018881165824,-0.56846817670969185,-0.19434244889703436,-0.24423019293294618,-0.37161211190673255,0.12077627260973185,0.52964479606730985,0.10134129482949812,-0.53027620967673361,-0.66965147718847273,-0.46548040591802231,-2.5725864621522083,0.67536243766812665,-1.4054656691177154,1.2368241727440665,-1.1251825255493879,-0.32115524687319158,1.948248946866791,-1.7625951129726523,1.3609431507027605,-0.088078486454999799,-1.1879609576803396,-0.5167374013207513,1.7074612196764469,-2.2189066455424542,0.55881427628253355,-0.62113691239310476,-0.14526221338960565,1.0780313148041931,0.074460224151075158,-0.74342125958954375,1.9335723969203913,-1.3419879712813609,0.81014762649328409,-1.6277912313398351,1.7443593183856951,-1.6347488613365182,-0.29470513233118062,-0.57000246600678284,0.03921864220370383,-3.0364759738045035,0.49993579954483175,2.6172449118791796,-0.06205628852579062,0.41663975082596943,0.25272922167425421,0.72118822747636679,1.4388470807532003,-0.022856717372574387,-1.040461810399181,-1.6640202030633886,0.47956606681757813,0.51897298486396271,0.1361638083536289,-2.8927712109888386,-1.3664077983237182,-0.27285782806522768,0.20587016701105587,-1.8759317120495171,-0.36707880391571462,0.65932075231600196,0.51179899941166107,0.15688623093903797,-0.68269164740330901,-0.27725157887827045,0.54909427153543555,-0.11149678131734438,1.2442338391330625,0.49978894028458082,1.6645080832619139,-0.51682319880780003,-0.45895932992815675,0.76989838812803846,-0.62437632733497406,-0.22398901255155995,-1.4477756969818383,0.45709565316153722,1.4741162432381398,0.29044919067361191,-0.45960597297544292,-1.7448583266765181,-1.9250379281054946,-0.5810553831088664,0.031135290067610663,-0.61001327299354424,-0.82083015797806047,-0.65878401038627965,0.53338746124129399,0.58407227137422024,-1.3980752681151625,-0.3915988148422237,-0.20169351125380749,-2.3723757556162393,1.0282530627258248,0.91648604190953908,-0.89361037536003918,-0.22746082435128129,0.73394413565948402,-0.10200000277908279,-4.00216669332797,0.88986865987819863,-1.5149959237719048,-0.89987963642784186,-1.6784134800005941,-0.029197651065600596,-2.3679897455328889,1.2482477412957607,0.63840877572026966,0.88470533987134758,0.47959675933245055,1.4065608746590885,1.7281554933092969,-0.86304576338917471,-0.4262839357541035,-1.2214472503855536,-0.26379220418164717,-1.3352786024851553,-0.95267134772335937,0.46156067438624526,-0.057623074808645744,0.14331470982158126,0.39645194565784253,-1.8701844934683372,0.033537943291031221,1.6880937024001592,0.68392912744731738,-0.62543444084211219,-0.1738182203001605,-0.18740676845911988,-0.10383020210345884,0.56259195652038818,0.21790625404194941,1.3442855297713092,0.68699869238955047,1.4544467847295863,0.1123566731566886,-0.68394532170145839,1.3060914097644074,0.14605890107422895,-0.21710607278450919,1.9853310901835663,-0.232375070609704,-0.15391276152891151,-0.5939623752386245,-0.63700077655579634,-0.53660893661075326,-1.5330361667531391,-0.21868286124516614,-0.37095629449934214,0.77256105227412208,-1.3184693653228001,-1.2164384803995272,0.57840075365043842,-0.024851865735467372,0.8920760312774586,0.041979552879415551,-0.012218037558699137,0.74084577287369968,1.4038764017363741,0.49278173016304522,-0.46807529536006359,0.92590097915466207,-0.78461608206039579,1.0061556651876353,-0.42240780492177643,-1.2436957986186896,-0.9933610722397529,-1.589591142663018,0.16138224108281196,-0.67648035458647682,-0.17686693998075637,-1.2515497803459571e-05,0.80466539593337505,-1.7979820836507843,-0.14280705239637703,0.18305084173862871,0.41009535614552795,-0.22208904231321658,-0.4852449100309984,1.0299259460854298,1.1603914089901857,1.6575276645706942,1.8260137928325073,1.8360649058462504,1.0545904605316496,0.35716393145228575,-1.1287485030900635,-1.1038237541475009,-0.051245281641808443,1.7351929965740887,0.16896803826397386,0.69249691126338042,-1.1341196845373671,1.9856591036603761,0.67939236958756466,-0.78743535993712432,1.5808723278562697,0.56504105405218696,-1.2834197612368565,0.63668646803695161,-0.49708308020978054,1.0948288658630299,1.0582934093434897,0.33871172063045091,-2.2438706799758061,0.52271544735579578,0.62409236580719341,0.044419766510217853,0.38349179922163951,1.6695785255969855,1.4320991821938611,-1.5142362158736182,0.10901310373153397,0.56608547926983632,1.3156872556423311,0.32407904120961933,1.8114664131702736,1.1346367305916478,-0.81464995923589811,-0.81121317441798779,-0.37372669992788077,0.1669944715618058,-0.60995136442350528,-1.4561240428887634,-0.16436371520402165,0.40254788297110339,-0.054515457411193548,0.34788260404466631,0.28647160234680802,-1.1182249652455905,0.75047480599091965,-2.4072317735256736,0.017623323570709438,0.1072255547251718,-0.14137129124426048,0.54706826469310121,0.57458766448680532,-0.081662447651468462,0.66101849270599744,-0.42811082174554416,-0.08755901310100192,-0.08455870815145948,0.37208000857641171,-1.3270107622173881,1.5138992492399881,-1.4628495704117499,0.89484085775723365,-0.1168808243600593,0.60744703270138978,-1.4082707786325062,-0.116786875553473,0.088543143415796263,-0.81533489056399622,-0.28855227613115325,-0.090132358107866933,0.77331528904885094,-1.4598168572497146,-0.39305846305644426,0.4004838303441649,2.2331796229910297,0.3071591113350593,0.65605279865416166,-0.80278227743558139,-1.0757270902556959,-1.4474878579492847,-0.5230336937808554,0.0039016622337999527,-1.767254928698984,1.387976917035266,0.26697882618605051,-0.83046104491470563,0.34385807335643215,1.1654863164919376,1.3375552992254423,0.1205959086478509,-0.027503045805496836,1.6891544717484626,0.3027252839119704,0.11309212471206777,-0.28994338972841788,-0.85358395418529642,-0.86558214918866994,0.10150855836185227,-0.57285497486946113,2.3108552354233525,-1.6441559783869706,-0.99190859904980067,-0.028021761351747023,-0.72852064550321749,0.69753894580069975,-0.76889280712260655,-0.74368582954748974,1.5038681816001334,-1.0946948609966858,-0.31658253389543323,-1.4672657821893533,-0.85929365385512912
