0.91664302030766787,-0.011864615558367597,0.28812210250683629,0.17037475779001837,2.0459464392317597,-0.82326815741393156,0.96805540002086976,1.9712340892097466,-0.53044887151732223,-0.032837131679910536,-0.011842390847133382,2.8755364172165145,-0.33019828467164974,-0.87436783790921024,0.2722304351805892,0.97267109806270979,1.2229358206603831,1.9954963007941076,1.1313454013616564,-0.077508739793198708,-1.1452229226616164,-0.018235589433291143,0.075178037130756298,-0.050493093777261064,0.80062297190302467,2.0008871408978735,0.18395823549220769,0.53910650316166286,-0.67830371037646031,-0.79926745789157705,-0.23091228364227021,0.17166296051054689,-0.57636161392205498,-0.26641153026967751,1.2098501059487212,-1.1214882685546907,1.0422027069424662,1.1149107458970757,-0.089406824190175205,0.086695901450241183,0.62400282328338663,-1.193713329237583,0.0017810827219309692,-0.51602839789628197,0.54166429841190533,-0.2417009643775096,-0.2822536018762008,-1.9293137037218222,-0.3423684325768615,0.85968497313757075,-0.80047728117025485,-0.8173086038458659,-0.77764533916728606,0.69506979031827421,-0.61543359856154656,-0.47049922610921535,0.73492877859290762,1.274856703986371,1.9267732695577757,-0.10689266957157115,0.24567786698197189,-0.068777961246065611,0.49225606556002577,-0.58075415644751505,0.43339865750644352,0.91153297937645494,2.2218779929583663,-0.045519606269037165,-0.94555526797677691,0.15320672474669708,0.2271297236742145,0.44072921640033291,-1.870315434730115,0.41252386653186529,-2.1784099163379511,0.69842888321532137,0.46689273072005444,0.38896301301914293,0.72060161140943535,-0.47989649588533256,0.9344716549039449,-1.2634114311641385,0.078272045496630235,-1.3879064830323329,1.4738640141991179,0.14999274891249653,-1.3339435107079298,1.0511188857856752,1.05044930823014,0.70471237694071509,1.0473111350013176,3.0399496318894603,1.5008243552568283,0.38104150243449597,0.74487426853282257,-0.84898386686654015,2.1191834394442881,1.6273983073343585,-0.038713278400866455,-0.5023060041389007,-0.34258759479956546,-1.5812777334474097,-0.37588914088395381,1.1828216793372668,-0.41162359520335601,0.82584366912486418,0.21467022907450303,1.4236133923217573,-0.32010134883401087,1.0169594946099549,-0.76141132311229787,-0.15012281069839462,0.40327528400339352,-0.11484329424928659,1.0235046524725233,0.23468345545437799,-0.16206024083965628,-1.9450413204971777,-0.78619842869706646,1.5741213987687865,-0.28782431716907564,1.5349582242746458,0.41235465378355118,-1.1579767987111229,-1.7696720685775471,0.057993119965548533,1.8501706725581366,1.1387702621999509,-0.001891888846268058,-1.1392710311264735,-0.40994168905536016,-0.2273211921028587,-0.50744682842972455,-0.50836037022717129,1.1123034706164765,1.0426694995705439,1.6333949041073133,0.80772731570766521,0.2923095346738353,-1.8593187469937049,-0.75563830801811105,-0.40287726587612349,0.52369376944670976,-0.20791303824066479,0.14466803761483016,-0.40123872679914635,-1.480249654030944,0.21227198219120927,0.01119004281271048,1.4233569658192695,-0.038212533852411232,2.558469832115088,1.0538978148349054,-0.94525578446857084,0.45719883361350666,1.3000493638808928,0.65785846160877104,-0.76715340160919332,0.4083265675231405,0.86020237736358285,-0.31435018813634397,0.27501828664807293,2.1428601644459686,-0.22528039134875222,0.85347358511056304,0.41553335645420636,-1.0795196452692355,0.63757584707933823,-0.47987013526417499,0.92830340449783977,2.1334473988021934,-0.66509135885808179,-2.1742154073840529,-0.43509001147680798,-0.55159601470649766,-1.2568053434653919,1.4441478582493334,-0.13521524977625499,-0.7100774832415695,0.15267029502438656,-1.4400932313736501,1.1708933292160428,1.8917685036914778,-0.69597948662668241,1.5994727009351535,-1.0258966741866808,0.48719945362400424,1.6122975994861555,-1.8587213575713537,1.5957818917797835,0.29069118415499318,-0.20699978873277913,-0.62061307328059256,0.066019273760674443,0.081047929339094646,-0.55980855221384385,-0.6122807760392589,-0.55118334412238812,0.58223070505795493,0.11393556654934753,-0.87154881915344995,0.3490302909336877,0.021027020943198103,-0.64130741012506542,0.84494248133845384,-0.71293556809015179,-0.1054099509167509,-0.19154940464877149,2.2893098919692538,-0.76292589797643484,1.2873885410328243,0.11738863878976402,-0.33771816205953875,-1.7086479669701002,-0.81026661912581943,1.2414491918622237,-1.1273394607933456,1.1587898980356779,1.4820748562179134,1.6249565595943904,-1.2152069555307192,-0.87870640996063532,-0.030324758728146061,-2.0385439714406539,-0.099970865531337591,0.32953254288513056,-0.77763046830450966,-0.3075916234995596,-0.034297725427654351,0.17647495152068579,0.70250142485527867,0.24998254462361108,-1.2431473184850672,-0.29351377178873889,0.47260612928513868,-0.33727683849623763,0.053912766247837189,0.51934055129169343,1.2740933716322493,-1.3384114892522503,-1.893010475207348,-0.59398167685882242,0.86145477814271798,-0.99447861206366939,-1.4866229408749967,0.066874961109032904,2.091563530217674,-2.5101631954114287,2.3244969353988738,-0.10198283852162139,-0.43584121757969246,-0.5923658671039761,1.0967678742171796,0.71085708977179607,-2.1304059074269923,-0.58962453810159543,0.8796245179313138,-1.2129415404079518,0.24175960095663976,-0.061455288243769071,0.43670829195909372,-0.90403643115308541,-0.12628738838591236,1.9058007160267141,0.12082386277318277,-0.52089664594182372,0.51927963846785952,-0.39439135220708627,2.318497053333946,0.35212176576583543,-1.062374102727202,-2.2452935957430205,0.1835277626684593,0.75217874963766385,1.2199482148780694,-1.3034868565285467,0.033323157975753706,1.1190831214012822,-0.43137410203893395,1.1062578335759341,0.62991752815395607,1.3867631971177901,-0.36503874351120208,-0.53711964566103598,-1.6980619612091985,0.99202502275857085,-0.35729279949427983,0.76983014317297693,-1.5107124418619933,-1.407096209957504,-0.27707852420980122,0.78642724112207141,0.30128818989890549,0.71530766618965935,0.58491397051382843,1.1398874237271641,0.47076189958357828,-0.3088413476030103,0.80109394004339418,0.26955264768336412,1.0892589138998854,0.50584236882184019,-0.40257454819035915,-0.76415628289974147,-1.1688560040818863,1.1870327266331657,0.73267862513757254,-0.63134235840271713,-0.84475892417724763,0.25987249744060725,0.10957147652923228,-0.68708787360240542,-0.86675357873827596,-0.87960341457726843,-0.72459468283859962,-1.0247437235986969,-0.11787224769666951,-1.998138906267541,-0.38179004213890061,-0.97059433950419272,1.2498126268602927,0.64624471078297985,-0.02677257881915112,0.024546416659629373,-0.81148113063362526,-0.0045705221716035114,0.23558852803928207,-1.5769586040415968,-1.3523534089961242,0.4415861692192421,1.3093310802988483,0.98787223712848526,1.1687168659477678,-1.0835310822313808,-0.039190486338371681,0.54446358414622309,1.5567843238366921,-1.2623316282043024,-0.67554165796460164,-1.2104537083432396,-1.3673964532468754,-0.19635682322900599,0.032112923287058545,-0.74284279331082415,-1.3198240254667168,0.29582967256741505,-0.13279523839228197,-0.49439100697441607,0.41189662714897557,-0.12560265761458969,0.61823578683631975,-0.034094348034487222,-0.49673603232763575,-0.59514346506014337,0.14618584003651072,0.13972237489179481,1.3359092832778166,-0.1486742754014497,-0.66728825642042355,-0.1380916382670683,0.20496095007482776,-0.58628991767668714,-0.0096519286027812092,-0.65791840635580179,-0.37515196005683848,0.88846887775468542,-0.82874346493981255,0.743106182447131,1.4990762962596091,-0.28104016851957503,1.7594574168459434,0.19202095720470261,-0.44055684923589622,0.49634382132073057,0.91087800260704177,-0.464429881001513,-1.3636659641101754,-1.5402181635605703,0.52513786864142054,0.86955045483289684,0.34597530408082378,-0.080297135014865101,0.6709922733802669,0.069678682326642594,0.54368646658593034,-0.30629197418200188,-0.11392789869367341,-1.2404158926433224,-0.42122072467303917,0.94712305826043586,1.3990228291666165,-0.15180348262667792,0.55871702665025458,-1.705173964633026,-1.2251691859754514,-0.43532383226703908,-1.8624235758834984,-0.29181662211151299,-0.87809723348051893,-0.37507777048615609,0.17905562937777347,-0.85184777372254761,1.7339827809616855,-0.85056388169546437,0.74097304235788497,-0.66450070250847748,-0.4981845295106086,-1.2514384398510796,0.75788283919529931,1.4757938032534634,1.3060354030778445,0.28771125906628475,2.0811537011801979,-1.1524920735116908,-0.34475369324960287,0.38645802358468978,-1.1139919410668793,-0.247806253037781,-0.82942002475858578,-0.79260243026087318,1.6928188199771645,0.79139090294780723,-0.7384806538087374,0.52518884188760884,0.35140056647577539,-0.67228743599916185,-0.32625647716847683,0.70765033998645344,-0.027108349175522621,0.17500343658066475,-2.1448039218044062,-0.25197186436972563,0.39923985548045349,-0.5144492961915571,-0.50266458921382406,-1.7110559257548528,1.090076816385924,-0.90368603344114473,0.14673177915138821,-0.31947412486978677,0.17473416143486542,0.043336991130072125,-0.055704030146738068,1.1579058996909934,0.73595050644504079,-1.0248505492055382,-0.11837296705832942,-0.1378706207870162,-0.45191358375156959,0.67990179556532548,-2.1605114194736914,-0.8695191663374191,1.1733516489289173,1.8767745514849483,0.43771334998595157,0.95872035037048176,0.77554459028305067,-0.33061609471534165,1.0230847111748167,0.31618027463005982,-1.3147367137944741,-0.22426811528932283,-1.411859167321962,-0.31493685545680883,1.1896400571805159,1.8049178268335631,1.0254889655505064,1.1426982557979144,1.3266503049435105,0.20982800432888329,0.036602966512879552,0.43333025610794507,-2.575997646446047,0.43490300740083321,0.2397979074006415,0.47840935474564905,0.56944703801078012,0.48657359431763003,-2.1983335225968985,-1.0838875532679686,-0.099950291002681088,-1.7732164166464373,0.38548300619801545,0.38159451149459001,-0.19238917486750429,0.96484891209168067,1.5892553867842931,-0.34001152090461378,-1.1723723772140522,-0.29903207117818381,-0.9292712841205335,-0.95228432903623683,1.4739443182360537,1.2123641756393633,-1.1676028089162891,-2.5377913253323716,-0.62088099367426519,0.17367597012374639,-0.56289275122124183,-0.76860221826870934,0.94398808034082426,-0.93816134510315397,-0.075465943137375729,-0.81961951651837817,2.3262060366954196,2.928201609156253,-1.5871891561097313,1.487096194138797,1.4844972289222746,0.63921804746592625,1.3077344204373782,0.74276775279292995,-0.53035064068194282,0.70015317316554671,0.82318640737327564,-0.48248830450991659,-2.2995132651023065,1.7990345027283421,-0.17645530371828738,-0.097918136081123514,0.81818080195432463,-0.50044607989973067,0.089075087015175608,-2.8794509540457796,-1.2226132219836996,1.4144900421611946,-0.73288448233822723,0.19001565410566154,-0.67659306510690109,0.63509368728524607,0.37217596822204541,-1.7219807083496914,0.62077243574120589,0.52435200420026618,0.28946796158078131,1.8950706171781364,1.4137803679776577,-0.19901918044220931,0.65681291410553455,1.7589828748192926,-0.37468559141677998,0.37534433560501818,1.7420730827676494,1.9033216913198721,1.1567068114075454,0.1380957839026257,1.1203318043654691,0.4332364416693551,-1.1300820883298959,-0.08587103780341257,0.31627869531829478,-0.20849518534565084,0.27824939701595458,-0.79017712789321615,-0.11988324936569314,0.55010889690825837,-0.59317118053623918,-0.0001483225097438968,0.16072741290789042,-2.0155683113706173,0.31350147017777569,1.0011854463881247,1.3383614040142398,-1.9932173800464426,0.97905143391009752,-0.53810386401719135,1.7449751183628406,1.4297680099824213,1.3041336253100153,-2.4597370894679873,-0.62094572950144467,-1.520338275667489,-0.98803758649210416,-1.0258167551835751,1.137158464456276,-0.35449107976022448,0.33737730369154123,1.6177361926820437,-1.3460728392970425,-0.73824891316572083,0.9660848022063846,-0.26798866114540698,-1.8455030080252304,-1.2018799247819971,0.93963915176721891,0.0065487810298090823,-0.26190518522894829,0.13398547412902997,0.065969805150339594,0.775197129670952,0.44450636689252554,-0.50346385922851189,0.36319974257222637,1.2767972473405582,-2.3287256647505914,0.69931155331434203,-0.22854099274392009,-2.0266095071913233,-0.11404138480151482,-0.4321365764037553,-0.18417902367285444,0.69409594065218239,-1.7615004082735271,-0.62322689920187591,1.243899304811978,-0.29380280664386749,-0.19113133317768943,0.44434661243805423,1.5954292014634421,0.37240358419893432,2.1671140592171216,1.0357713233690824,-0.50550654467500611,0.18568031295748458,-0.74922744900958593,1.2103103837323272,-0.8044921062329482,0.65705835323822581,1.2830463300914243,0.89185240089843776,-0.27846260750072055,0.026538597245065104,-0.25971738636220426,-0.97278193539260172,-0.93762893996557883,0.58330291908901966,0.25945113563147898,0.73980319293959218,0.082606430964033986,-0.012067089164969912,-0.86353522408706618,1.3590247110123963,1.4626830713543124,-0.65137907391243322,1.8597044907679712,1.8393036591857412,-0.27298978880116725,-0.64241417282799995,-0.58940279752476887,-0.04735031958555129,0.34059790382345162,1.7973060733106312,-1.5518476445751408,-1.0667956692704863,0.26246842001166132,0.30171716173295055,-0.98503911317734172,0.21325502705273908,0.023979195653424264,-2.2619991812523681,-0.59866264667679314,-1.5456912293331189,-1.0808251834760949,0.0019934638233805265,-0.23476091925429901,0.40863685389847709,0.015430430563871559,-0.10207310431144478,-0.78653836851148851,-1.4750881372611027,-0.78273507203054749,0.0066931838107445966,-0.41220920877004236,-0.79489756907306608,0.79522570761181988,-1.8474048963735541,0.90754403542557327,-0.46902331466208874,1.0578227776959828,-1.494372337176104,-0.60784268468155522,-0.45923595242804044,1.6312229080444582,0.081130576366160084,0.45311707136521417,0.15336132353239024,-0.023023109586464724,0.53425505286154484,-0.30279696066028206,-0.34835269662770907,-0.35198219128708674,-1.2650758585112136,-1.1952449766235396,1.1727389168010462,1.3216163143028934,0.50451695367677207,-0.21307474191777959,0.27809181406538286,0.45939169070906821,0.23356651023455877,-0.09531283090661298,0.79654874923971264,-0.04359370790777118,1.0149741783444932,-0.48518519792487874,0.076813582765811322,1.1771711640348443,-0.22613813132790758,0.30882585702923593,-0.24858079969266628,0.06808253038931153,0.3607945058536367,0.33961289979995424,-0.039668537472493465,1.0597713969113705,-0.75848335995410521,2.1107989927026947,-0.28692701798777398,-0.28362374947580377,2.218091226803518,0.46020256067045234,0.26075888739403025,2.2453402301672933,0.7876549422454322,-1.333421031502144,-1.000570288551407,-0.094914071813666387,-0.91942818628662681,-1.4881399469878096,1.4776270295295693,-0.72496036539677355,0.23051870260495697,-1.2609033184949896,-1.1111792233761006,-0.62510648800587854,-1.7762756234857426,-0.5945665145282808,1.683567905917315,-0.23889566010151336,1.937565573164493,-0.84899949264739605,-0.38713709254624129,-0.16373937869358335,1.9621415476871094,0.5166834493147725,0.61626009069766685,0.21587313464552338,1.8181377062681465,0.45232663837563075,-0.55349789229794266,1.3640635830949817,1.5427035372204889,-0.34296862926760646,3.167873360172623,-1.5911248520806387,-0.56365872229332314,1.7935070470156818,-0.28696644093773593,-0.062643006931975914,0.28529605287598442,0.2687656499152436,0.30761873054604105,-0.56520499133507507,-0.043761585605456808,0.23133738082237107,-0.72226484023377735,-0.5798579928894313,-0.028895586370996939,0.49166035606500763,-0.76027635044757969,-0.38100481778170697,-2.0962655061947539,-0.38288015358722371,0.82417211888879571,1.9024361893866311,-0.93780299933974676,-0.82582077780007912,1.7509439688913835,-0.54266118804407737,-1.1909804950654614,2.3577725765687778,-1.6161688632131761,0.79842603489710673,-0.5386256093969668,1.504802061073734,0.63428392823020452,0.21536605320949531,1.3686046517295085,-1.4485992488151422,0.48727256083364334,-0.43233421668263444,0.25163939468590207,0.78758278911649959,-0.59899442714227891,0.34644793487330561,-0.37422681842871802,0.1733646882250057,0.63369493560333467,-1.4958927078906559,0.11397512621996198,0.028201461192075516,-0.55133256639596739,-2.1374297868193928,0.63366752750847433,1.1501790684491329,1.7580656973178974,0.10581067889219146,0.49797297186667111,0.76841231928357823,0.65983450388734888,1.7366477371687705,0.45054812698102853,-1.0355898786573254,-1.8622725515172629,1.276777004583302,0.2882118493559071,0.82026754941253643,0.074597114620010299,-0.67340244206447075,1.1812736677106705,2.0066700432666917,0.091269519570032542,-0.44941577820733075,0.012268018458807806,0.68998284062209614,0.16200387903729294,0.99408779604009534,-0.79238125133829296,-0.48469142669721049,0.81411420832126113,-0.49767263959707275,1.4453727685905609,-0.53671306403656238,-0.89887858532395515,-0.053718301561003955,-1.6938143805604458,-1.9356879145578672,2.2867261108174142,0.75112854784182137,-1.3987756494102748,-0.070672626955232298,-0.32002018078725497,-0.65688643540526193,1.6221604316485829,0.96586471631440796,2.0199033638872654,-0.41474673254592176,-0.14261272141331363,0.77038043698068825,1.0344819138619632,1.8286807705924453,2.8621875856985759,0.84571822723045875,-0.7493052490894867,0.85177390076130943,-1.0978550660468547,-0.69049224153091981,1.3962419336144807,1.8780047499559045,0.83741161567662881,-0.22291440980507687,0.53054465009726426,0.53721394087017404,0.097935164579449369,-0.22343563059606039,0.69740772506523074,1.0371205218965152,-0.47870155701392025,0.47807741777839119,1.525780259216307,0.11042658641380534,-0.30531189384362034,-2.5955526220965845,-0.76889437684130169,-1.3986561827253738,0.88423570720860967,-1.1097667348387827,-0.34061256410960766,1.8899512898665276,0.14833919628888792,-1.1400077887917939,0.92561323601247691,-0.67595641233708537,0.20983887437159285,1.1425367092254153,0.59070246177587049,1.0182813727146467,0.7665722144789473,0.6651064472170507,-0.16231179838843104,-0.29981383195204625,0.59831883154454546,1.5719018812142351,0.72758558753619385,-0.3741700006630081,-1.5106952573851737,0.0066674119920874259,-0.78142716046307292,-0.63577746490860887,0.010238544589293668,0.79308228795106206,-0.67660179210035887,-0.23378614388861579,1.4376274668309919,0.89489776601734783,0.34065118457500632,-0.30394766435285797,1.0303709057761143,-0.57368757153664607,1.7581120785525568,-2.6752052545282692,-0.48994621053423387,-0.53419783313683744,0.19819821939828053,1.8234363266749776,0.36243789937219006,-1.5090069281276959,-1.4436577927164835,-0.91422991977893375,0.68002773596258681,-0.41623657445930634,-1.4933668552483534,0.033704678029767676,0.34973730085360472,-0.69492318614776327,-0.68521510822414711,1.4022283019366324,2.2641445926892971,-0.099381082741498608,1.1109269956244379,-1.2188843758706038,0.82276460295770182,1.1904828840163344,0.48601560144055805,-1.3722613505086256,0.27763307965473116,0.74707288983972975,-0.97400761726549234,2.3496190654624192,0.50348222061533099,-0.046346212102493796,0.41175846725239229,0.54127968922512448,0.27943066509202447,-2.3403267103514604,-1.7663247947020255,-1.0534295145274923,-0.65608138349397227,-0.073369334372058032,2.0514922316476576,-0.27582173807460869,1.4029666181383589,0.89385672174202968,-0.76432851178896821,0.80658969766684419,0.21630308763290876,0.22547197173104233,-0.13634931225668545,0.20327028753626916,0.18293399815073857,0.11175297460802612,0.77240508225203564,0.23713664712508833,0.02693755972942442,-1.0522797046569787,0.80250307418451616,1.1745254784411501,0.92731246840231518,0.31063140725642574,0.49611421759125152,-2.1764601492151652,-0.73248452575184653,-0.6865239680060421,-0.3987065866689124,-0.31978101806951736,0.53159726251058603,0.85284214248552026,-0.17433558212595468,0.82035917291282712,0.13925557796042246,0.022751753780791223,-0.75904376565559373,0.40919061094428011,0.65390435163531069,-0.90090759927164421,-0.91044984651310645,-1.9936744398119763,-0.75962506023667686,-0.7231869586296904,-0.22802466468922744,0.078554790827594825,-0.97075413551703016,0.34570873304193833,-0.46646146212713868,-1.9883443056493557,-0.47791691530361408,0.99409096278878839,-0.45170647019701965,1.7574997992950625,0.66246657118821994,-1.3812992082499977,-1.4857570831276548,2.3155825527580061,0.008981597913633994,-1.0409494367750873,-0.83827595545234135,-1.5248946758310458,0.9057671432495793,-2.4013532463116287,-0.77036624208235782,-0.2514268045544526,-1.0208417519947803,-0.50946950886456754,0.91979688998768694,0.33453746598997758,0.4203454221730758,0.10566514269697853,0.48028172651798734,-1.2580114630309684,0.58149239686923737,0.90570761049127768,0.90320788685696407,1.6935673114196936,0.73677453769513068,1.0004330940088582,0.23432906173264331,-1.2562637450080185,0.80897448447029863,-0.77317490360766783,0.68068496123123023,1.9567942696227498,1.8701740296519067,0.31848513917502574,0.60037003013093493,0.80194891637094035,1.9018386347285543,-0.26711694086817117,-1.0423474141871685,0.67633758253097376,1.7438729454931341,-0.20549237690669261,-1.1549316359886665,-0.65543488550097961,0.36948719457452966,0.56253651531629834,0.35077935944089683,0.87407084017582559,0.73668594691344191,-0.77163275010809529,-1.4953304101938429,0.99574482225476324,0.56383668486722338,1.8927327824959623,-0.42047687445788867,0.078465042718388625,0.66525544476740395,1.1925387826565006,1.8936977709131679,0.1431033101946696,0.012979858009367119,0.23181764772244612,-0.92219709781338755,-0.58839936688416894,-0.11497810865531154,1.0179149164201755,-0.89058664760077533,1.0956001868041292,0.95936532902634819,1.2809100042418309,0.40064718247507181,2.1489740864360707,-1.4704948191453182,-1.5126417295722661,0.81012111628046812,0.51381058129742474,-0.26009406953086311,1.6457328075072648,-0.85271355436835772,0.73990149406467198,1.405620985570732,-0.32404441389164823,-0.26694860376993795,1.3325935800131499,1.5739676624988661,-0.69267641416577586,-1.8741482124376296,0.5386660201677036,-1.0529798213962918,-0.042919260218768823,1.0180073456038514,1.003187748874371,-0.9986503947263794,2.7822307938740627,2.0312951947777678,0.048853889459461099,0.3330780127023284,0.19466158807754094,0.39570338554476209,0.83594351683967916,-0.61617114306785614,0.063408597811193151,0.48195136754240231,-0.11558826119684434,-0.48810249538758127,0.029973003852441522,-0.7802632450050806,0.87561548205618833,0.098725390018028866,-0.50598473068138339,1.3183685987082203,0.13046306493813295,-0.63748453219621137,-1.8356342423699104,-0.87192160428890209,-0.31149515668806116,-0.43882382945427284,0.5409423765736906,-1.0325768656332643,-1.33253630939808,1.2041190573619884,1.5412147301050947,0.056953089423462874,-1.4933107418016749,-0.65554539890201458,0.28511982931013957,1.8570815290993137,-0.33875024790210628,0.082221156392848022,0.59233004878254547,-0.80875486877281,-0.36688099619363007,1.6543551276613044,-1.1619179032695302,-0.18281322733360955,-1.5384120834395094,-0.96448342665442965,-0.12573376808518599,1.1272408040587256,0.78104722172996655,-0.61707536276422115,-1.1391275871842068,-1.5510158595067813,-2.0262100911636303,0.21125150643767598,-0.29541213288029317,-1.1265822695150312,-0.16663006222021326,0.073359158756287277,0.53417794455543766,-0.95388239462820779,0.21804844391672731,1.0969581020819559,0.76789326171761041,0.30868922344317917,1.3298751849746488,0.11886442650367014,-0.47013426944712194,0.11191923957590413,1.0558982657838749,-0.67561609356304142,-0.043786632022063898,0.70018652370240153,-0.091760113582359179,-0.98158278762373241,1.1515836007680189,1.3872818058737411,-0.015592660893119233,-0.79143004921796878,0.72159173657801057,0.88269099902333481,-0.13482184171223144,0.25332498701104206,-0.68639428153760129,-0.71889369613579424,0.15935365494872533,-0.054451604807415885,1.3040662061065278,-1.4071757481582294,-0.023207377587316124,0.083603347673204667,1.6043004182436307,1.6808307673861158,-0.60817024034132561,-0.86144999839835446,-0.40274351492757726,1.229137711507126,1.6358579497917249,-0.52466080208954757,0.70911908542959723,0.91850354489130748,-1.2736061777697922,-1.3251851292118564,-0.76756765435548691,-0.8413937993400058,-0.02235553534191155,-0.77232737644427696,-0.99845576124033841,0.52007030661439879,-1.1470216229547303,0.17608101673332591,1.5053346046246032,-1.8302318979122536,1.5558815483928961,-0.32585605826923542,0.11494061713140735,1.0584927608561512,1.489166766129195,-0.44330815839576693,-0.36387956319831127,-0.78103985628859618,1.1795690784851773,-0.38573077804995359,-0.00024400788060393845,0.03697038257512443,0.14370805141116968,0.37665944243174249,-0.72576500603923477,0.23876704555354505,-2.4680918533879046,2.0781157057055561,-1.2812507633189176,-1.1321171226185458,-0.63063530276580593,-0.67765077197660462,-0.73230387042308198,-0.5179229791605483,-2.2640165153926302,-1.1034029004538106,-0.81797493808710076,3.8018839174691408,-1.3634931515809794,-1.0323554835122233,0.11691330411633838,0.39224888516007617,1.1063155606829485,0.33209335755350239,0.11584134747574983,1.8004157994864445,0.78499233245909283,0.37849257975902212,-0.52240835295908861,0.70250890235171914,0.20286259524571321,-1.2972783665214453,2.1305883084446853,-0.33474812569112888,-0.8649154849782521,1.2985700349823928,1.4687924943063826,0.89752355675589623,-0.42939121471936709,0.39434738836562139,-0.12228813082473881,-0.47116294506547629,-0.87023673045992733,-0.35254825243942695,-0.20484056926650729,-1.2708931974777611,-1.8137626424147788,-1.5316542494071765,-0.19331774395117582,1.3835507553880653,-1.3042285040080348,0.30123639223893101,-0.38956641124979952,-1.8764748111397913,0.41306909509910278,-0.96751168352717409,0.63780466564520533,0.24295801148010168,-2.238330136650581,0.086499904705875555,-0.3494572473442229,-2.3611359751121528,1.0398704535307255,-1.7080723157337407,-0.40574469698596621,0.40533279524617422,-0.45274263789257729,0.67049737147733579,1.8055900283903501,-0.63003508460495139,0.34919719536480581,-2.1245640560602821,-1.3480066683254057,-0.51578222271641194,-0.80633193126171887,-0.25268643789540302,-0.7341850023736709,1.0371328147816583,-0.070809657788518471,-0.34398960690137875,-1.712904160903848,2.024532912774208,1.9438490049786625,0.9195253363739605,1.4025139197297092,0.2561267843669946,-0.16804931698872103,-0.67411893744883,0.7356741007892964,0.30538829550149565,1.7285707411713538,0.60249078376352705,1.0510207230729232,-0.98308634196099765,0.86120402870504986,0.10297942496295306,-1.2576321928001526,0.54247788816217168,1.2806161379544718,-1.4303551028982036,0.80163987107742873,-0.86771962527192081,-0.5301040627666137,0.33632588593702889,-0.30213477050956555,1.1047455962416839,0.0408187984814904,0.41829777098240006,-0.97666241478199345,-0.063469621705410081,-2.2215518260413893,-2.7742870059923566,0.59982844016758441,-2.6324064684552844,-0.47041915739275686,0.82632095235562575,-0.10004952111983706,1.0215479033224322,-0.87144510404252784,-0.65141050934904909,-0.93031059638379177,0.22406664737199097,-1.0510804716440825,1.1385251825194691,1.0468131551179187,0.071256818915877165,0.56053561160359933,0.88023310804399746,-1.3325735990809839,-0.39385009768426027,-0.57185684466509601,-0.25655561701229018,1.5820497542309004,-0.5021469640369407,0.9107033634660987,-0.86276099572650922,-1.0085304844950582,-0.67912224294460821,-1.0749426410530905,-0.19631378313480993,0.71225444492372181,-0.28983347395164166,0.74229134788044315,-0.59455937689137772,0.01961447317100579,-0.050237577960763564,-0.93316665779427688,0.1518279833039613,1.4274756768220629,0.15744829337704144,-1.1364253098453641,1.2664250342420671,-0.26010585140535697,0.29151188747539725,-0.02586310523292204,-1.7681560680464092,0.18919685142095574,0.71479547132623245,0.5624820521385453,0.53943633186963613,-0.097852828480982465,0.58450528480564745,-0.80897287401464069,0.62281312698639146,0.72297616201967396,0.48558538999389872,-0.74480813781505584,0.37090606397078513,-0.37899971761180351,1.1958646762210634,0.82187028960974684,0.69471495239553038,0.23235111512108053,-1.1780311862696429,-0.041420061582027802,-1.2445919164680361,0.58735428162670655,-1.0866830076886578,0.19071467148615828,-2.4307616255888402,-0.99804258321134043,0.49365014677306629,-0.88552561746289671,2.6382338137898724,0.47729484099275127,0.36872647188673896,-0.33011866308249904,-0.89653246026610345,-2.0445617468827764,0.61255683301098052,-0.022078826897993453,-0.33522117947130298,-0.90535173638711886,0.31023013712925068,1.5569764490232367,-1.5009260170164036,1.9642518945199852,-0.98890488667388676,2.3706125623495149,1.66846158230641,-0.78477711198508315,-1.6195521799446932,1.072960225959243,-0.042481437542651539,-0.052787087625812065,1.0999249199946919,0.68317000678806172,0.31021707903838497,0.0055904642031388077,1.3636147110041561,1.1018905367061629,-0.55452937136176172,1.5839150681520344,0.40816699604273005,-0.40054924131102781,1.2056611558227319,0.97646432162187302,-0.10796825361460033,0.19260733536942137,-0.014566650299129036,-1.2455848727344423,-0.30840825274792388,-0.28793134937488446,0.34002258808389202,-0.0088441323768844865,-0.47320408483105758,-1.3121954886549678,-0.9279187658332001,-0.51228434183058946,0.66321094155596372,-0.96000162393487365,0.31042252075592752,-1.5792868104549123,1.188652738876891,0.19217854079378774,-0.61611427874115166,-0.9441136140239238,1.5619177321365485,-1.1676988638416115,0.10809142054232099,0.47001166021155288,-0.8663343256515581,-1.1177045153550653,-1.1504012788511662,0.95186688286793719,-0.42411586292151077,-0.53636776142441256,0.46610670707301849,0.68618254319076943,0.87299315030696578,-0.85070229969225941,0.26269387634051078,0.75060697090638484,-0.22037480623602307,-0.10910075249906817,-0.49339874587868277,-0.43534942215898775,0.11241100818707486,-0.87727024430060641,0.59315289290555984,1.4727392251301377,0.52721557685503262,0.72091064008854444,-1.578315224600364,0.18832005518156567,1.2029924225813009,-0.55057637749825039,0.27923822268352505,0.64354159906470143,-1.2340629047671672,1.366434483123192,0.85189808269751643,1.1818676345467176,-1.4427646500995381,0.76843724589560458,1.4363667280474004,0.87467826664706383,1.0738943974493573,-0.17533818747824798,1.2107617317209245,-1.6180156764727416,0.16961548003317151,-0.49468379098075316,-0.020642456190579316,-0.920133595456326,-0.50634528536048484,-0.43282785184103867,0.39922035991030419,0.054487206126408755,0.072525601928963762,-0.61285911920446279,-1.7410450988798958,-1.6886494642596694,-0.36771193345178688,0.62219184414778694,0.31403361813452529,-0.25568708257389139,0.32936676262524073,0.064846485147954963,-0.61350318917683022,0.064599109611358424,-0.14919203977988324,-2.1175041752712827,0.54486794498913571,0.25398734786060984,0.69360012994760012,0.88117234346265449,-0.073311097635466047,0.092189951196332207,0.44785980803595998,-1.1321270979443065,2.0997095452370025,0.74122107489199562,0.39044179971851506,-0.17051866845684147,-0.72854471564183154,0.54943913423612789,-0.86412245533890342,-0.19845334678229329,1.0205302560593992,0.22778920835936373,-0.17662962873992788,0.7852475458409951,-0.045846487207236587,2.0650368047830003,1.2868772812193057,-1.5470525640931629,-0.49138367677612371,0.091502995319565225,-1.0248907230718036,1.3978073050568212,-0.44085074363060556,-0.92470243852305845,1.9260020129098188,1.2309271746626731,-1.3832657974186338,1.2997487351956634,-0.61715614829235865,-1.1185969608876287,0.57947597583929333,0.65594199884667304,2.0741084056845089,-0.98182803227550575,-0.51492254600549348,0.9146206754016577,0.71100571531134238,-0.8086579587903292,1.0711088004766622,1.2237569773333954,-3.0273117817680943,0.32884045366153775,-0.45544816166426438,-0.26664550312262203,-1.1704870800603835,-0.60136540394162896,-0.4150118666799501,0.70922535738442194,0.69697638746584867,0.32126864065056598,0.42271031326108605,0.043877548826152558,-0.47537131230237267,-2.5256129392719129,0.77673835745850062,-0.62348994071870656,-0.55236448540547234,0.262416604130008,-2.7263113683850162,-0.46983657971326648,-0.35521568014527977,-2.0650494717491492,0.022737730311478736,0.2178352322408767,-0.26543355464130214,0.051315302499985553,-1.0823537031020054,-0.0050380368783926764,-1.3711109856055952,0.040641847030575932,-0.56325621894529909,1.855943132416066,-2.0408676838103958,-0.19676032847275665,-0.40058681395105417,0.33766177615725357,3.2576698221276179,-0.44051287082632146,-0.71050507862496037,0.71169106028962548,0.052910092908494383,-0.038610828351359115,0.14805082580066442,2.7232945911903315,-0.32727876008517798,0.14418327805463177,0.013097710621953031,1.0890433955802619,-0.067458191630805825,1.0635481072261432,-0.38480683098405111,1.0675415284531651,0.088919245316847362,0.62612864550971703,-0.4184109171120674,-0.69840493358328481,-1.115646734332687,0.33703670723904822,2.9121967372036295,-1.5277979963326624,-1.2983395522155317,2.4249833190603334,2.0823449205731892,1.8462320048293519,2.0416455903368211,0.11479918724105251,-1.0742816548225897,1.5462002661752463,-0.48826902931563654,-0.49924230851554502,-0.68761129339641136,-1.0618419435230682,-2.141602785559924,0.88358659656702365,1.9644067181595712,-1.7422557890332981,-0.47899159393924939,-1.2629478706480077,1.0073180157019272,-0.83191547302221047,0.22012644054598135,1.1695798615297999,0.42734380361484819,0.21451077135566407,-0.29088035470904061,-1.1358924392962777,1.3852995547918909,0.3143927417907445,1.3413492281246884,0.38998493437732312,-0.37772670227969685,-0.48363117107857595,-0.90848732959354717,-0.57016854358952773,-3.0696750169060016,0.663463626041503,0.07167983489630235,-0.84341383531526681,-1.8549441664957156,-0.79948581160071552,1.2425459054591852,-0.77156684010548082,-0.48652842803898333,0.87790373354418616,0.2329533317041011,-0.40828450695931578,-0.73750212375652402,-0.30539731487593585,-0.12138166600050178,-1.051284365442801,0.60876761264075707,-0.45762415635403425,-0.65398678865031168,0.40976955201818654,-0.42636570625811993,-1.0304694551642557,-1.3183869025690289,-0.42507379388250949,1.1459832905271927,-0.31842681077004148,-0.18740642468946087,1.5387108177259889,0.45793379723774064,-1.7047152849032841,0.04012869082111481,-0.77197289692724025,-1.6100532463046926,-0.65843327720921629,0.6122822995504833,1.4091659221547648,2.1663409294887699,-0.5918655293236561,0.046221074831819496,-1.2922654568960261,-0.54556807571875066,1.3250187960344832,-0.58363682407056583,0.9325905094742063,-0.061945376469254188,-2.2957160915892731,-0.07078821858276127,-0.17380136195722559,1.2056491808576231,0.34962061634246633,0.61568692725135388,-0.25730794225407366,0.76641560102462081,0.64754287339130723,0.16889478629186647,-0.43520615773612781,-0.91961409396194771,-1.0781872864209867,0.045408650848256057,-0.59454699000864997,0.23242701197087559,-1.8929839894424745,0.089883770310436178,-0.39123894661638325,-0.70843668373058155,0.51644085804837303,-1.0811480001657079,1.6076645855107101,-1.102953736803461,0.97853878450573506,-0.30869034406659707,1.0532008044173704,-0.70728951086992942,-0.74798953411975655,0.18668057677458355,1.5136515942444071,1.0736980889208481,0.97306377476985273,0.33979720891967718,0.16119022139183545,0.55275782637016202,-0.9232550156911874,0.93818113040111506,-1.1877868906373674,0.30443893411048961,-0.28198350326506016,-1.229408521046963,1.0480318920689879,0.073953668827909977,1.1929261640761433,-2.0180992593320299,0.59194211701122468,-0.019960489833410634,0.3740083868226185,0.2791911858814678,-0.28832516363152677,0.46747026396135127,-0.054752003926551135,-0.80406999926427025,-0.39424895938177756,-1.3220816855061053,-0.21345017363429214,2.2634931873871569,-0.25411953865004155,1.4732114329247736,-1.067929143394228,-0.18292969510272794,1.4260102291792003,-0.37529847054171356,-0.42329126193375366,0.63580333056921845,0.010167023993151352,0.092811573772717801,0.13082980670193914,-1.2844936924154997,-1.882348624355102,0.58818851794751803,-2.1351899269405936,0.34951496919295877,-0.1700906451524444,1.0375955119902627,-1.3351481769573565,0.34150808116782455,1.1261663892235749,0.24987872033380354,-2.1569295005931628,-0.1993140632644908,0.23709837264356512,-0.50777184381632201,0.80111428290576958,-0.11978448502932833,-0.29977923079708213,-0.48419861608910486,-0.44121463767007507,-0.12518682462910066,0.96006726473418114,0.092500348714522132,-0.16952617057534539,1.2422748774675798,0.050213746810662443,0.38884016846409925,0.56948037582567279,0.72355943040904347,0.18625959326851063,0.222892917309398,-0.89775606213848635,0.69631820427772817,-0.56162964752816358,-0.51157649311494702,0.99391314774916772,-0.14162167107561865,1.4238977187409421,-0.40483152304251885,-0.44379935091793205,0.23436831936573038,0.17584753427796496,-0.051945807846445376,0.79428379779629921,-0.016700884036176516,0.00069673333921998679,0.88976028191638246,0.55015594724224492,1.1495371800687455,1.4500130543174203,-0.58075235361479993,-0.13535138355074927,-0.21615405291965245,0.20945901075403789,-0.71493858391751697,-0.053192612021336468,-0.50761953257839409,0.18344936500810086,-0.4115292607478202,-2.5982227584876734,-0.22862594046690324,-1.4277254198224636,-1.8153105866742356,-2.1753565543916418,0.62345299267378007,0.64485019159078616,-0.32840587358033335,-1.5340305275310444,0.1701431390198988,1.2365060276244071,-0.4205488994944841,0.081559232121133085,-1.9642387645169559,-0.11854747829442538,-0.91934818200818891,-2.601839096628733,1.1202949918378411,0.081636206554078536,0.93086780699612692,-0.30348071132393256,-0.22339902020727306,-0.2766397309622648,0.51756003190193756,0.77573767245136549,-0.14802864840615781,-0.68028516455655996,0.86766773148090948,-0.043258161651857571,-0.52911923581687803,-1.4555478463594349,-0.14844761002955367,0.85164679041725178,-0.25132700886831777,0.8932508625982839,-0.039691736152709281,0.044216121893044184,1.5251412250823158,1.147384622848532,0.96839034314955563,-0.80520637199211409,-0.83722425426873959,-0.23586103535186945,0.49827993010050137,-0.35371228762220613,0.73961393497611427,-1.6860363274951315,-0.68598820693136586,-0.18018710079827827,-1.2009779016590409,1.0222217108217524,1.4561411025565947,-2.2194398880509323,-0.087309084264048181,1.3344727861224033,-0.94057411302940475,-2.610793283687332,0.821393385380772,-0.36208682133964398,0.01810355981707449,-0.47496823299909735,0.11655379433905003,0.41573513562028414,-0.64218106356821114,-1.4760008410313787,-2.1796442255866442,-0.97021741462095146,0.007391100723804377,-2.3425100115201718,0.17649105827727521,1.3434309002404894,0.59875238415005572,-0.14684214259086625,0.80873072376385802,0.0089578064144018952,0.15458663023792313,0.8556016962332319,-0.99133610257441551,-1.5280923241035553,-2.1422140658624995,0.64789789778122331,-0.2829023782048658,-0.21329270506131767,-0.26096153406582506,-0.089775399772942299,2.3108364198386102,-0.16007286323597983,-1.6339007420626144,-0.22789183236879856,-0.30501590871781065,-0.37657845703943232,-1.5590792901270516,-1.220413033840964,0.23060581698821994,-1.2905307049043093,0.97944785120352551,0.89019667338948494,0.084980330479023994,-0.39124396751118645,-1.5317554405319196,1.6335016564369302,0.28399082018349003,0.14299208034228905,0.75608100421951718,0.83219521774044336,-2.4429542243822975,-1.9919908455962769,0.26285816660535011,0.27138690060803683,0.42256896968280672,0.27242782625248702,0.43706419321667767,0.12489213996871421,0.3975274115226024,-1.4719232564686442,-0.93594636958544541,0.45375888963355981,-0.11547166189666343,0.42176058854187048,-0.79940919617830741,0.33632009192626433,-1.4223558780241259,0.018721189344923173,1.4813407085799508,1.5994071408082651,1.2155571501060649,0.011092428533997209,-0.47061982684786663,0.54541209967094872,0.22869431771901805,0.30926910088826615,-0.13583542983060462,-0.38520021951627587,1.0615893310516857,-0.91005139299262261,-0.91639286970711287,0.73513352663911369,-0.056437671516875371,-0.40780054435145713,-0.25164646260237961,-2.0351671742059207,0.70222897931852668,0.4605916595278079,2.587925312323232,0.1103965885073387,1.1923980924004256,-0.1099127781240771,-1.2896894579956137,-0.050393679747187101,0.019674367881379638,1.5250429856408545,-0.2457099089282006,-1.0616489540207972,0.69312095017983533,0.48554510968032438,0.64089447247022058,-0.8594511862034786,0.38019378049543417,-0.3517405510974983,-0.2226895711458276,0.46209444605717448,-0.23343345658911621,-0.30305445003866927,-0.28849669137279743,0.023067761923686775,-0.8832758051410069,0.26059544549185609,-2.6321006491941943,-0.45676355092630017,-1.1854597739599126,-2.5048841816509415,0.21874242263114613,1.1139429163262091,-0.77687715972695925,-1.830846928274142,-1.40453451903445,0.60075758005790569,1.6562110765327995,-1.4844589544457742,1.1772415403532048,-0.52218177772469265,0.085919816223057374,-2.0363902717023104,-0.61289910405731363,0.6071215643733735,1.9352587739469183,0.13669307100860414,-2.7866981185679225,-1.0729061271248561,1.0521283026390955,-1.1491554869871483,2.2902649493025411,0.76345024869796119,-0.23236204064199678,2.2047375615650791,1.4104771180536964,0.63222786163868594,2.6404407151833675,-1.4743730423445356,1.3905557654361356,0.78573577297266906,0.86662809224204462,0.3095277095015746,0.60746537614762619,-0.086520135595711409,-0.73574773679308969,-0.84096797731190065,0.3438735805964348,-0.91353855258780048,-1.3295303884660221,-0.75584488316583276,0.857098156447756,0.026456710421429361,0.69059669062054352,-0.40329472833451635,-1.8420171143541852,1.8901170818177262,1.6603538766274704,2.0297558090235821,-0.8460292544721012,0.70699620711785993,1.7224694526951758,-0.82991883968201874,-0.99330534265857195,0.71615518638949394,0.20451118256448669,-0.73700993664228309,-0.63074068542608397,0.21225123787236411,0.11913735963257648,1.0448959196072081,1.9707988177089411,1.1620590330145641,-0.44438555947783082,-1.0237623214784783,-0.19597189321565325,-1.0085222141055405,0.32619551703518168,0.049785558546226072,-0.91288565106971398,-0.0084570330484930265,1.3950191644335079,0.52294801447465589,1.1442963036591827,0.12179267475123898,0.18757666030260717,0.76926940561886281,-0.30411926777067655,0.30958855322201839,-0.47047607033402605,0.75457679484547835,1.3408894390879817,-1.3907638072032373,0.39701672522886361,-0.56927194796313896,-1.0660895933826522,-0.38497043648522383,-1.1517518852907431,-1.67193300795427,0.90115389873187357,-1.1001315267576026,-1.8575569520447486,0.44938586378292128,-0.79556251224085395,-0.82058444617984327,0.40857951492282218,-0.19085838874673441,-2.0146241705437737,0.2685989396994391,-1.3711760057709852,1.9251069551764446,-0.74914455918916345,1.0442406473162216,1.5490667757833221,2.3108625739569373,1.2085050233790249,-0.98115954219556611,-0.023530690250832525,0.060797606424180785,-1.6004711088219263,1.5522021868264257,0.44958257212108971,0.84272971586951506,0.69975991855913999,-0.2094156303353254,0.51392283290504781,-0.14612919874621322,1.2158900728029214,-0.65301704772489944,-0.95492981943963218,-1.3675550263739646,0.16124133298454221,-0.40141950682428867,-1.1406492003947308,0.76332906158670499,0.053808535609944634,0.59813429583563793,-0.17814822495071042,1.5993824913371784,-2.9719638847759984,-0.96107329244640671,-1.5342383573349179,0.02491209134267406,1.1477512735336561,-0.73430723014692378,0.12659860965528311,0.32469473781059177,-0.98034247858009438,-0.6947244113913148,0.19294232978801357,0.76201286410904834,1.2199459814746039,0.11641823267889727,0.34862696541092231,1.1469404621269148,-0.54192089907544716,-1.799679525844758,0.5548239363824341,0.89317499222182328,-0.019650221050529503,0.12370094916002888,-0.82148220159034491,0.55810702485456287,0.40965739115770289,-0.87600719443732189,-1.0609156327233804,-0.14786420060005345,1.1673219399395816,1.1353018976481493,-0.16115059987142197,-1.8714698420333182,-0.26136264499742584,-1.033867802969358,1.5690514687305828,-0.43802360047240513,-1.2322054034139376,-0.79381861950131949,-1.9876519732832809,-2.8768229652715602,-0.21951885616281189,-0.17437652579108151,0.14752966076644425,0.55308104167162775,-2.2175218926850286,-0.32267052509318861,0.5345037386651601,1.3781839113779266,-0.23398672378675361,-0.95922948279696751,-0.59115674873899182,0.84120518673303657,0.2141833334873601,-0.25573107859995831,1.8799097789340098,0.058798247795071194,0.81184131007875127,-0.96667112255258747,0.73601960198843708,1.0353895943547753,-0.61881541631144099,-1.0374973503067166,-0.15774551385325075,2.2848948145062327,0.76982674043240173,-2.669538375206435,-0.25420416034814819,0.64088606859392738,-0.64020029235357534,-0.92144603644476386,0.72799770566845834,0.28366834354361575,-1.5897201741846037,-1.4211321992930035,-0.27610405687302669,-1.2013900917877443,-3.1345713830168904,-0.20125643314025704,-0.62841662462865011,0.43165337215853361,-0.81728800643916022,0.12935690489840942,-0.70013781860288338,-0.74554509803407953,0.28203097546248401,1.1928038582285982,-0.29722802953529387,-2.3041571767109126,0.60641647866882842,-0.31946473994740188,0.26783705190561491,-0.39278163776310304,-1.1287662383773533,-1.6332566187571045,-0.8366506227168512,-0.43040110161620648,0.46202844785139757,-1.5893165609254012,-2.6008062221946906,1.4184343409461047,0.93465093252322373,-0.24098950959749454,-1.2862809440968839,-1.9907592098492128,-1.3830363433883019,0.91127509220831338,0.24833050448376154,-0.14847209088609731,-0.058045801493216212,2.9832598069585559,0.41697331008263211,-0.40098009077292512,-1.2967113329849835,-1.55096591896947,0.63158512748143125,0.23083290437835199,-0.49093224973989247,0.77567106680442466,-1.6406154383275717,0.63191741786416988,0.019821070431965352,0.62032619368365283,-0.047306078730228969,1.6820421540692483,-2.2544019910519135,-0.10611551241178013,0.96026728264672556,1.5558960589095849,1.8027303359165496,1.0491251877647727,-1.0760954222074783,-0.65361831429233741,1.1457240217207785,-0.54876264101060046,-0.54248247580726028,-0.44116896834956731,-0.68038094562995188,1.8885216458873011,0.14535524274003608,-0.76667600436067374,0.77075400986531928,-0.53538796299843272,2.3201306375930084,0.020148250670941545,-0.45774192485088255,-0.39239357940753594,1.0039778351271746,0.98401852012410185,-0.51081112041632015,-0.80439297875980542,0.82277453879301976,-0.18198478778203436,2.701237626650363,0.68812042669478024,-0.31825720733582019,-0.684673307906564,1.2113088804166161,-0.24626925631145843,0.11736935299164557,-1.6119535530598781,-1.6693833445370219,-0.096682357163193455,0.26264256000306507,0.86321492927259313,0.72329015272602892,0.79341897903191527,-0.13779402507484684,1.4843603564697332,-0.23908403880318968,-1.838603186128781,-0.24373581339354172,0.38364703147097345,0.2150677171763839,-1.170011513264561,-0.80515804663753965,0.70399257812012317,-0.51202901203724183,-0.34685743122216683,1.4296158891376083,-0.63433091013411369,0.78272296924656393,-0.66748433375199101,0.35756590650316739,1.286736005270454,0.066940077841969564,0.32805511715474261,1.2279426711958064,1.0522833713535955,-0.83169503014895318,0.028245900675230969,0.083403456435636097,0.14323083402838296,-0.23330594923649339,-0.62895372506249581,-0.30487111646147336,1.3840284319006235,0.46089608961146655,-1.3079882853028506,-1.2581219089535707,-0.32239106668722145,-1.2662043220487516,-1.4505593665312302,-0.4291055203774321,1.0949810418155308,0.0028998394483203244,1.8511742559873137,-0.74109863445502466,-2.7465011339425334,-0.25603826641864608,0.69641606053019967,-0.80012323166369015,-0.88279715536229075,1.7883590069134887,0.93423206277413473,-0.030371040376001336,0.17347916543216646,-0.71346147137948646,-0.95925794452235424,-0.34713788955582586,0.29636728229339288,-0.48215595448200993,1.5402621085842814,1.2362366119155568,1.0756353601566973,1.7231260593562363,0.2186519451034365,-1.6642809680874087,0.80459217873515321,0.86821745333980826,1.5348568415930077,-0.059485504511901946,-0.76464806540607344,0.28128422526890845,-0.73513937970278265,0.62879728202787,0.38087763367374677,-1.1813429622793052,1.0716601331134807,0.16668174266535821,0.55090006000651548,0.22604209701756472,-0.81432056447569945,-0.071474294995577531,0.43217532629069422,-0.15699456291379624,-1.0903682510542998,-0.0093178406121105766,-0.28819547647092864,-0.70614374677944125,0.30918553603129501,-0.38889780259275136,0.19806597707884255,-0.90012157768890588,0.20531055264257858,-0.92480960462683903,0.61031039598165526,1.2995781116367759,-0.22633494690510664,0.29115434458980582,0.32876841377291577,-0.57298337826836376,-0.41713785975738427,-0.4010874335933311,2.3312689466028909,0.060810575019633564,-0.65575927372398679,-2.7196002689196574,-0.90628291608813549,0.47441758631171604,-1.3340134288563053,-1.2693481938442188,0.54111176886876788,1.5376701068418941,-0.25476205125261248,-1.3707888295363695,1.6937788634238329,0.4287982024216026,-1.8538345485398211,-2.116083953827566,-0.035163131317194583,0.21402963077528778,-1.4390711849705862,-0.8559149514393487,1.046563982602462,-0.43595555154202065,-0.41182454330446183,0.40483017178955349,0.93435876601985179,-0.00023862822026819624,-1.9142159495738631,-2.0488941727798515,-2.3285025486781943,0.49275324915004265,1.2035592785597733,-1.5846992068377734,-0.76334075693956316,1.5007603727953558,0.39193306124874783,-1.453092398667001,-1.5042157714377908,0.89266464898640119,0.47189606495126568,-0.84206074811004994,0.093077805103953026,0.43541541075865919,0.45197498228549615,-0.95936320867355618,-0.60696335431951143,-0.98618482753172809,0.42935212330949357,-0.033379950975816336,-0.028039449523101972,-0.20422869462925936,-0.56950045750612455,-0.073029478436148335,-1.8662907589433315,0.88264306950057336,-0.36501144154578524,-0.98696570199804945,-0.00048596566552242004,-0.42449635943679498,-1.6828609152974874,-0.23468655085948392,-0.60547345855896684,-1.2642254802962207,0.52620877411880018,1.809904514053738,-0.76759047638471711,-0.430988060731261,0.69035488480987361,-0.074392643121553775,-0.19530096281415066,-1.9464466409773087,0.98919051902419397,-0.78700103543295008,-1.3285342902213697,-0.95925609063718875,1.8930717661505256,1.8756589297238864,-1.6033190324142219,-1.6428200273497886,0.70530528154875982,-0.93450990274360879,0.78426000198672463,-0.71840262623322559,0.64943146515564631,-0.52364837879726467,1.3017773101292853,-1.1738476623960201,0.26035441661984027,0.64955168802600238,2.197726807650811,0.65244311837803903,0.79386767511173628,-0.88592570401982806,0.50062777726462027,1.6752619848780863,1.2199985989634261,0.95171539451360698,-0.10878833000836234,-1.4519385015710644,-0.2075821429242769,2.7243144525741747,-1.7612152917830282,-0.61728559876132871,-0.44614868899533777,0.95174862231511881,0.94490760064233592,0.64278386626595851,1.7076526601163984,0.92847236115159004,-0.7844462639288351,0.48892657567193554,0.76804733355536403,-0.19388865798370769,-0.43628271668252172,-0.046976069277040726,-0.45342744979123889,0.25178816683884708,0.36773556839163996,0.13030722203906411,-0.22826823217591727,1.528082096169596
1.0131122301695425,-1.382905151740389,0.72779273453457327,1.449573491074883,1.125518086718704,-0.43858947229818829,-0.57556433688558395,2.1870098439167829,0.53672845493655896,-0.59656798012794954,0.7067228989948009,-0.18414141598733208,0.50373170820982349,0.66201132500526338,-1.1048936207691793,-0.35300370347585291,-0.10162678966861591,-3.3412675768581259,-0.80615258498684361,0.15050517855215095,1.0832879440150895,-1.8048218900700026,-0.79439336418156903,0.41927676956268461,-0.7876553531848578,-0.99960990760416468,0.83189665011124625,0.1033083808003319,1.1870861391825058,0.38033485572569531,2.3900386743026916,0.16262380377738697,1.0594433472298135,0.56378744347523724,0.1874949083855659,-0.22873243297372056,1.2926079812107953,-0.045579177928486876,1.061899851807784,-0.31073696297821302,-0.88776963450333413,0.11940871452124491,-0.53025227075074577,1.589661931578332,0.10735434361542472,0.53453018198277091,-0.19525849377905111,0.89962794472943342,0.41846870296624994,0.10045658457686794,-0.069290347274722025,0.38986453174298735,-2.0013193032308023,-0.35355569570342638,1.5366286905622559,0.50021741431080047,0.2871882593833871,-0.0051613633748272348,0.53330857523912223,0.050082450071957434,-1.630419742679198,-0.12495416322767225,-0.56200295355401797,0.92344562532600971,-1.8983716772794124,1.3398684199486122,-0.37450272493162323,0.84928558085627837,-0.1146893056921329,-0.23685557706868554,-1.4983645033095212,0.25369962969178173,-0.64555566003471976,0.79349288831065168,-2.3630700256069361,0.12272743864289609,1.0375833453671883,-0.032721946246248267,-0.63055530723607112,1.1888854533965849,-0.51959573757350719,-1.0475188226467214,-0.96421038612241383,-0.56693381482569638,-0.40189794844795285,0.019760219161187833,0.60126672276021409,0.26906646308071347,1.1368513622673262,0.60479546671711548,-0.52960846103924042,1.4285373941024857,1.7900353575277228,0.55847319794673822,0.12538860519350567,0.58079987134280431,0.40026947450194494,-0.68642027598076483,-0.88222277905097746,0.26277815009657407,-0.17791335115443599,-1.1211411447990765,-0.48399523573261211,0.073228369420244202,0.20128873144513965,-0.47398278778228908,-0.96311940478360503,0.37214863517570523,-0.7214950367648173,-1.0052690711227161,-0.28252366931101242,0.33487888863355753,-0.57216777200977964,-0.1476729765219868,-0.068772215409867346,0.058223266612147037,-0.48061559176353963,0.68260097695129807,0.88793706128135585,-0.047425963862130285,-0.34960362399802919,1.2168540586894359,-0.96460729942122303,-0.33208280549378671,-0.36109487558140674,0.91814884022441778,-1.3391431624480779,-0.096584977643254119,0.68532526257363069,0.21634674222293604,-0.26298808685854541,0.85584608939730888,0.66119846925325887,-0.88741679632949921,0.14046359950729836,0.29646216297919908,0.15897181094894069,-0.67644169860185754,-1.8004377249593131,0.59347211281607615,1.3135973388155946,-0.07477220861402728,-0.51302476477078041,-1.0579921813838205,1.0513808250074592,0.2846617997669702,0.7674649443496635,-0.92596430057907708,0.93992251464618448,0.40340853182395753,0.99233563781822065,0.19277778918622626,1.1071352331681874,0.044833987721907657,1.3631015837012594,0.46737161313561632,-1.5650991280988922,0.20216302860350416,1.368722965393484,-0.99796352757166862,0.1137371423464785,-0.22990120387979612,-0.69518803790103834,0.1560616884573357,1.5811285235667503,-0.41684202736152953,-1.0463438230101505,-1.9933423281894256,-0.26518171348154645,-0.14267693905556483,-1.3840483643649555,-0.56264595586776689,0.65393503116910678,0.8252134061947608,1.0181062082688301,-0.97316716916482582,0.26645326368805322,0.1598688704653986,-2.6504720396757202,1.1930377642205325,2.9329571791750637,-0.14961109237217202,-0.76963306596430037,-0.23063995540528395,1.7771935259241198,0.56372728354267032,0.32240769800540242,0.51060306113825082,-0.71230192621195743,0.28642687925649124,-1.7222208014261216,1.2561514191654926,-0.18186894133962472,-0.095801467127450399,1.6997742412708992,0.25993347183823345,-0.70018395584727677,-0.82892591069698773,1.2808938833111234,-0.18057337650866978,0.67040372058105879,2.074637533192027,-0.34233566972908619,-1.6885396054824449,1.3992445101287527,-0.92490286478491845,-0.43559970711428331,0.29783960701685031,0.11539741304248848,0.33789289307718595,0.57702942384463862,0.26496381235605998,1.0772816099838567,0.42199641577212943,0.93800026262667313,0.41759624589676964,-0.47407102714628813,-0.4933852263183709,-0.59946810613430701,0.0023385693739395226,0.83531327432397895,1.9535941218668527,-0.43434607841170797,-0.36192047194934518,-1.4883257269893828,-0.31322122015879933,0.97262774874181357,-0.6129789525949717,0.60030418745000769,0.74397718274349234,-2.0778608963154821,0.4832646010301751,0.5289992462568619,-0.80434614644901936,-1.0417447799020003,0.19967318713509916,0.95644817988930397,1.5219312031132544,0.15884044183855256,1.9847380703910551,1.3882969914925436,-2.1757377094496722,-1.7735815004853543,-0.32527727325262296,1.3697113662460789,-0.77344640030219669,-0.21047177619199076,0.26596032484451443,1.9999036809870161,2.0924957908776403,0.24910935199988085,-1.0808215740852649,-0.36119944374101554,-0.12881414554243178,-2.0143247532332946,-1.3145833089177907,0.37152453204680075,0.10157933143377171,-1.1671797252043192,0.11131507797974638,-0.22281303314351666,1.5423776891340968,-0.71183459006547001,0.8442524941742473,-0.95150303150081705,0.88247183336347079,-0.77246175479871571,-0.73271766493515844,0.55407014277684297,0.83318327023763394,0.72582630100809997,1.1829578752984606,0.82253416206888064,-0.016181486633477956,0.5727088786806076,-0.073217897466991644,-1.1351743817098607,2.3127583445178144,-0.41689934248067995,-2.0393158928845567,0.08975545383434301,-0.63572912499177525,-0.18218820998369742,-0.8323082885240336,1.3282888289393571,1.8177071864640344,0.082030698302840641,-0.56087082104111396,-0.091802827460075245,-1.0285933592953538,0.41267224663998342,-1.3039945402732267,0.75928201884846447,-0.10257222646297501,0.052435687438980118,-2.3429110294781053,0.68452423131175899,0.4387917275985011,-0.21381881110541057,0.38202994829530229,1.2697860743667762,-0.34846889543100712,1.6334581946246107,0.57438345403511948,1.652313834122203,1.2900162971632556,-1.0394845938715465,-1.7511023149540901,-1.2841619913720181,-0.019438366203936391,0.91827319261462759,0.48898583122754258,-0.26953883153915481,-0.6296576037073558,1.4006476282647946,1.1463038331991533,-1.731971184976161,0.39666754668006465,-0.039395348882206992,-1.482192338132329,-0.76844467941092942,1.0110613726685562,0.92810928017219918,0.13056490977453636,-0.12850267300371435,-0.34856842892420525,-0.55022093709962305,-0.6899567647864181,0.561378745524998,-1.9342989622001592,-0.21557082026348695,0.54552470731369918,-1.3863818197139508,1.9901338778054147,0.37699666198009768,1.0651978673434546,-0.58404289735099613,0.095284647883942336,-1.6752353853808648,-0.91967088095739213,-1.7481848468399626,-0.11355115174847161,-1.7351038350803809,0.086009366150237271,0.44344703917489547,0.55324841957304349,-0.066205232225684266,-0.44418281055354064,-0.1571540502634555,-0.81754822507933611,-0.95610111690443567,0.024730911719685465,-0.62863010396307106,0.011014612677175172,-1.1776477730969468,-0.37480894184757096,-1.1036208986392591,0.40868333779810684,-2.0170300179638816,-1.4090706529277592,-1.269195724965321,-1.63442014902956,-0.6765821004779603,0.88287167481288942,-0.43749426568509919,1.7844401148248774,0.56524779104138545,0.73341774547337446,-0.055429576536115598,-0.39854039931605534,0.94717231032658278,-1.7466792450854594,-0.035627989390718443,1.0979568047625801,-0.7446678665052926,1.1444009887961988,-1.0468629732235974,1.0708580449091554,0.037431129387501885,-0.79964305979609074,0.48298848069307038,0.025795731520669111,-0.1403309257084977,-0.27255773889990309,0.60230095451871746,-1.2505033494798288,0.17956423733495433,-0.42000504323885052,-0.21637134148656806,-1.2976747017142631,1.1755041617251754,2.3525930877902983,0.13189500323390732,-0.022526875813970712,1.3759736004591934,0.79485007314718625,0.065994202582652109,-0.34862187673486378,-0.92504368239667822,-0.89106148302798016,-0.30206936042692334,0.65050908951742936,1.6868037315384055,-1.6968696563601149,-0.82884889517726135,-0.22914830019255636,-1.1670675629827847,0.31231062130291903,-0.2380185844805788,-0.088635486468414945,-0.0059847306244336382,0.98563427458534469,1.5861000527522737,-0.24000533565693985,-2.0037611454552704,2.0241040194069639,-0.038675834241135361,0.65282685296476428,-0.71037270846870204,-0.058864407260496264,-0.51561276324739802,0.64405579032959126,0.55106008519821992,-0.40669783982618146,0.71151018838558544,0.098370895977051662,0.38351402595133538,-2.436242430688635,-2.1350934928771275,0.85904932428908143,-1.9692231040784893,1.0892300285374625,-0.12982965628024518,-0.58242580369602692,0.59964752020388268,-0.77663530668328706,-0.48975884356964339,-1.3112758277987755,0.96920195645099916,-1.3483149394798672,-0.6963402396868692,-0.23331210392040944,0.56506978563080168,0.97121855542596636,-0.092919279480758052,-0.22425926607882601,0.87197619965901507,1.2503102977922818,-0.59660589140382825,0.58519072773514014,1.2698525290303899,0.92679705526763356,1.2544192667950664,-0.98876620371707435,0.15017603614178768,-1.4814212328420051,0.79769136891843828,-0.65610530210561657,1.0153383118064021,1.0544201134502134,-1.0468343692028115,0.58188811523068851,0.33909331764746398,-0.16004391674783505,1.3559759954450374,0.30246671788413815,-0.077915808266153838,-0.79512263597185051,1.823314414137357,0.36118069393155616,-0.9332531771305983,-0.15901807801793963,-1.145007189767369,0.63229055986722382,-0.82888168533673634,0.52225511707181016,-0.14961455876902161,0.010134937657747329,-0.4591380425246116,-0.31210764862607948,1.0878983140379672,-0.68665086144055076,-0.87815126525048037,0.17574077562834661,2.7236488985717564,-0.18321355024079802,0.54808424317843807,1.4256140411852887,-0.81927814067200821,0.63063565756669793,-0.30683353079065895,-0.80647451853865781,1.0449514257976626,0.15864788824536838,-0.5313335630910343,-1.625763733768147,-0.65841362002139581,-0.32381549623834949,-1.036978156688215,1.2175777436509718,0.065179862806439642,-0.87777384219835841,1.2523158303407838,-1.4689364649667729,-0.41662683122463456,0.51116871460448465,1.6009962366323893,0.70404469595778285,-1.7217591700128887,0.097492744502576098,-0.86086733487475464,-0.51976363685115112,-0.36904292652237547,1.7129067039158801,-0.032197992089650233,3.2141830661618735,1.3848446562936003,-1.5853523105156275,-0.77444555781504898,-2.0744060500577008,0.43483502850650224,0.041126889185839594,-1.8725323407693351,0.20415499023389511,-0.27106382610639307,0.81672477852209713,0.81233742275879239,-0.94012704980736106,-1.1462873811285208,-0.95825505606742833,-0.93078939790298909,0.60346496537328198,1.0738242760128973,0.0013474110373031831,0.44574068788051779,0.25757929523569323,-0.41329127533005988,-0.52144563079391648,-0.10295025525980078,1.2327370623273108,0.091296358593520477,-1.4772569793778711,0.89175778123662752,1.0869026428130868,0.65216605263821437,0.81207229817225635,0.84445660522093791,-1.6267663679642208,0.3533427501153279,-0.59467886737711884,0.44192953774692345,-0.44889061356585502,-0.1697105721300011,-0.1193554104523451,-0.2679129294292395,0.0071472778407299792,0.33543189642834498,0.55381394101107539,-0.75219589624325023,0.85582221296072813,0.61509592974133798,-0.040429507465547444,-0.8245620265319209,0.21703228287674325,-1.0998314862400913,0.22063628368330662,-0.32881292441667731,-1.0884563375575522,0.33813596377608152,-0.39070180752077471,0.41981635648984228,-0.021928023809710328,0.49456692571394328,-0.57531404507477757,-0.38950708210973589,-0.34598716709974991,-0.22043257922869444,-0.32232954364760197,-0.36872072793111593,1.627751783919164,0.2638065407247403,1.8074881092121304,-1.4249667331347549,-0.2456657486516961,-0.32497233317634078,-1.2516807964539804,-1.1105640975147981,-0.14895488089444789,1.0893029802315892,0.2199099328243152,-0.83454652188473832,0.29905253352569555,-0.011507247403699761,-0.55944174750103992,0.57762683444202434,0.021480074835884499,0.34399901891275286,-2.0101919859727628,-0.42641032577767962,0.64949788228662053,0.43639124016070108,0.00072314689423438601,-0.93837032115636743,-1.6186181590349873,-0.024333283050786362,0.13498650757854969,-0.67199296798319808,0.04581053191892797,1.8451526237588078,0.32462562254323629,0.46111142832091301,0.019152414774697545,1.525514739323411,-1.2568968605592425,-0.15886657632012258,1.7765159155151806,0.99898020830467493,0.023048818274885891,-1.6153946669441555,0.25404201206117982,0.78042137892538443,-0.3475063117328156,0.26498798612810559,0.56725937583871167,-0.91492443662580369,3.4654874720661888,-0.42116022588907881,-0.93636338580407452,0.11686164633519472,-2.2430073099935508,-0.78543262163650895,0.56238123523369365,-0.084334445847782769,1.000452028611482,-0.38403181154100569,0.05004179715726205,-0.86462591200391925,0.87361383268682047,-1.1692158175768179,0.81441708765242571,0.96611799849841973,-0.87802395064578131,-0.68807170486549996,-0.26535822501177542,-0.91328102492463392,-2.2209764917504535,-1.0397482962500404,-1.1491929897051834,-1.9080178433115702,0.3447939162469979,0.37137815941623653,-0.19635298337323812,-1.7872608672548074,0.81498582179379297,-1.4647089306637724,-0.1844732582506439,0.58379202146074016,0.088658357761309134,-1.6174268787995791,1.352834394336986,1.0901134602082321,-1.0589345504416412,0.8659380918122076,0.22491614619608399,-1.2043240351761333,-0.22471991664175819,-0.91438729987867029,-0.11340815304038826,1.2676828116535714,2.5525999148734865e-05,-0.9648893434347946,-0.99922645343881111,0.18473807322321359,0.74724990345969999,-1.8968624795790749,0.053022939356907391,-1.0370435873665731,-1.5190924307752223,1.2716677595997508,0.61887622483386007,0.99809471517807102,-0.1860598217354249,0.41543225533522254,1.6311872174452522,1.569599548946113,-1.4336268327805894,-0.81537981297822115,-1.5269744770538516,-0.37432326615237899,0.62500888006093247,0.37751589648214395,-0.94660025986691165,1.6220008399752583,0.67077244772202338,1.0030790547862829,0.40889305941586407,0.62882973178840684,-0.32616542185028619,-0.017100818155545396,-1.0173557478299522,1.063893352508003,0.26149771657928012,-1.5135459573617942,-0.57862543442912506,-1.7828614358402119,0.1968777539950681,-0.40207008531193522,-0.24924445860728228,-0.68656476280564072,0.54950780153825651,1.4028721386341456,-1.5064455358002002,0.6486088928325785,-2.3447331351569165,-1.9045110729370696,-1.1570655198549271,-0.23429719166437296,-1.1304922334083054,-0.69148151187635765,0.48245283381900461,-1.2701510812163417,0.52166053060535211,0.01235998546699984,-0.15207158437485835,-1.0571475668318715,0.47739319826711984,1.2397215294082757,-0.82965816090565492,-0.010955407678407192,-1.3525113034440048,-1.3815066370873554,-0.81907943555528617,-2.0860003759778403,-1.4151311476057238,-2.0237195387712688,-0.75139550922863041,-0.21753614392155646,-1.9030929565384989,1.1538196414474717,-1.0478937547388703,-0.70696437448685756,0.57543548913762865,0.1363655638117319,-0.60929960814219997,1.7045138131464188,0.78988900389131556,0.49461469996267315,-0.53805296957121573,-0.8590605827816794,0.87375610810436088,0.046218945182591842,-0.79798522605559197,0.3010009455638783,-0.018261599811771206,0.64632295210462876,-0.81940587526537856,1.6833214921672386,0.059399921971451261,-0.19845679820732556,-0.33921382762639068,1.9466279569599292,0.44308617235005404,0.30153900715502946,-1.7444338116293641,-1.8214254654802695,-0.73035994502486712,-0.51969469897004306,0.55137085684770071,-0.037491176444606644,0.46237707645796572,-0.20184531258458202,0.085817096037483678,-0.1112496388514892,0.64632749471655437,0.71545771910308054,-0.52486583326168068,-1.1150054994359511,0.57559794318595647,-0.19075271308147429,-1.3920496283564072,-0.34574760523480469,0.78808415293519007,-0.92789891241767553,0.07429712784786692,0.64757848109427729,-0.64364503056907552,0.40419327019781598,-0.11333487469573977,1.6847734933233927,-1.0914119540354186,0.45439432253850598,-0.25430794000300005,-0.97841473914877997,-0.1488206296793656,0.33565534613608111,-0.61729292838571714,-0.47351102910593312,-1.1651501505335138,1.7917837003498129,1.5464875875551147,0.076144296361773431,0.91853700255007353,-0.77154746409700936,0.038417207395757866,0.2900157004361395,0.38823847525948596,2.0091633966779066,0.21461900445014481,-0.06482168308840329,-0.42579708000530575,-0.033083118587409574,0.10693373299281049,-0.7392146552333555,-1.4798781866930801,-0.65135146735941474,-0.58554983396404348,1.2832313635930344,1.7065841873927527,-0.94735404522324029,0.076554312350139195,0.0053246734126897871,-0.42227494295766144,0.61799200000205279,-0.52037925392764128,1.371530918749416,-0.038311691030828328,-1.4844298519172578,0.57976228931074092,1.6165651567159436,0.27016018867283814,-0.87780703261742943,-1.0358145365634284,1.2500879655226429,0.51687909477350502,-0.043143337365959718,-1.9179933356206209,-2.2164662763387146,-0.70306598814483445,0.96988432491830401,-0.4095701106167734,0.21369246252047366,-0.95141704618247513,1.5222302697396104,-0.4451927697352876,-0.43342701807204759,0.72523585589290029,1.0123595394744322,1.5605021061086337,0.033991041251113303,-0.88376573495836563,0.70188041833504156,0.75460845484043437,-0.829497590574377,0.49936618443922781,0.12663104420150825,-1.6427297130786749,1.9877393811304587,1.2035818507261398,0.13971248549303744,-0.47170532286257294,-0.79837236895161223,0.935115414979241,0.012905734276231977,0.52582195412821087,-1.3758591214192069,-2.0752681553146899,0.11613852920239318,0.89965118638532671,2.5742119947490512,-0.66024131918314677,0.18731905035040905,0.98032744654242632,-1.8937758136517224,0.66787563025977792,0.51875799809761247,-0.5780381826960963,-0.96111548682948522,-0.95462924087925938,0.60541141674242149,-1.4483932875407437,-0.41700152190129403,0.81093719489344718,-0.70039538535551737,0.35157949903931984,-0.25222283154862363,-0.6838174506565855,-0.70420146160233144,-0.053442513594513012,-0.99561091334428342,0.71686136852675741,0.32525099584519163,-1.3034178273063521,0.25420857983847717,0.52152294031102586,0.13526444532139478,0.34313386820960767,0.56340086169989734,0.48072649660111083,0.62640542874098037,0.43948487151041171,0.18359569035746706,-0.8111413767919321,-1.2156764491577772,-1.3156305484628106,0.30815024139477948,-0.89200123149811106,-1.3360307414428905,-0.4674664319807989,0.24674522197898716,-0.72465633499155735,-0.87845482701048017,-0.55304115191521053,1.0519240850902711,-1.283669791939785,0.63396223250347516,-1.0904780396592237,0.73421176295381652,0.059501143222935204,0.9093789455780571,1.5415850374167095,0.029525350306782869,0.3888162959028113,0.67796537641956212,1.9588486792619548,-0.97612105989285103,-0.47504465428430193,-1.6491768637296051,-1.1749311564601972,-0.22345229460203533,-1.4906020074486683,-1.0082960072049694,-0.54800653509551955,0.78230683581161065,0.94123907775316196,-0.31008320570100445,1.1840122302581606,-0.56548936537249206,-0.75846340745809626,-1.8475142933515172,0.23947230898274161,0.776842381602184,-1.3035053153605956,0.96905523295744034,-0.84542966288874166,-0.041436464429387129,0.60896171478698802,-0.57336892166164044,-1.0786518255259259,-1.3610718392171794,0.53486962606521904,0.27323806992143757,-1.1917937252189013,0.91098313558706867,0.20745227156849672,-2.2484372209220918,0.11183770199016113,3.1594868787557586,0.86737546474774174,0.29387075385150363,0.033479390432035711,0.078869586326813734,0.052389264360030496,0.017778783346471143,1.7431522232559826,-0.3658568868112676,0.22948073931261209,1.4592441523441015,0.29196789661683392,0.35201799787231142,-0.50119885703326805,0.50563708625001502,0.56407109812763578,-0.5247531263114884,-0.36115875718453039,-0.030791471443602541,-1.6839973941334718,-1.2597293994384389,0.86381128507219274,-0.70924926483026784,0.87837737500403368,0.8848753910427134,-2.6900485518720343,1.6210398678510065,-1.5908793169522639,1.0108862561413523,-0.5765273005694096,0.27772472645588675,1.6823260949209351,-0.21073735419325332,0.55028102734388473,-0.071761371476987731,-0.40997608806025221,0.014398219767718139,-0.20432690071261803,1.044517310740237,0.018562986385282684,0.94177543406630448,-0.88656768021153198,-1.9725993134050879,1.384311127330951,1.8991622642144799,0.11292759322678303,0.87643647408245795,1.3009940278047614,-0.19734105431174073,-1.5730079564362205,1.2765873316997969,1.0300946094212438,-1.1929837433996917,1.5179201634236892,-0.054402963457179175,-0.18021401686552171,-0.2183471781955241,0.28523257876392183,-0.34614882703889782,2.2988502595044906,-2.1010208241233479,-0.98967293353243824,0.91255010833437111,-0.17872598976593598,1.2445297851485873,-3.1078914466668537,-0.52437304722042821,-0.05949643039060689,-0.58086355594608829,-1.1098650055094694,-1.8689894800682951,0.76614909750959326,-0.047213544209944842,-0.34251469532262163,-0.28503004994405262,-1.1566430464943931,1.1142971827625008,-0.37931641336917538,0.17312556762444875,-0.41462598589260463,1.9193193589246051,0.87112343921395508,-0.10772922409283646,1.2286644690498851,1.1601439915044391,-1.5649076767656978,-0.54804757634041967,0.12885370775183477,-0.015489668124990854,-0.71478532933928196,0.95618004260973122,0.76070640216424412,-1.227724663577779,-0.5042124579553835,0.20058152888524053,-0.68234594863326603,0.053333747616707512,-1.5667073402060063,0.91516256449864464,0.48854111020734819,-0.15127802114969874,1.4982476936995428,-2.5903469170619138,-1.4796103698282395,-0.85829369604101058,-1.2676489203903296,0.24327780982162586,2.2008682178297412,0.53035175456810846,-0.49205757371989933,-0.56906436643268543,-0.24662068070531637,0.65798130417368506,0.75035556546197713,-2.1397642056704615,-0.2651850952215416,1.3882915914554441,-1.7259323275969505,1.9424905463403792,0.18287206571499931,-1.0231765664091323,0.45916232267620233,0.40581715581954436,-0.79975564479753292,0.21577211060807769,-0.5105310554776924,0.45048505663382626,1.3033102087757116,-1.1942741744035505,0.69872210375234178,-0.17128242477962155,0.94138739887276324,-0.37373677407321271,-1.1213096465683299,-0.57404249518732575,1.603870088863421,1.1355657264773331,-0.54924846560507956,-0.93169409487924892,-0.69714983230634664,-1.249794001844319,0.17776234143777406,2.3466640823825351,1.2336756733068823,0.550382093379018,0.073488226334887372,0.41613092011339842,0.96145065327655665,0.75126023545117038,0.5975088669638563,1.2302215157275684,0.47086913472044523,0.62990552518620846,0.93227714540899409,0.55759989710112368,-0.14367374880257527,2.3367419107241818,1.6182931315320421,0.70225996124539736,0.85615127874925312,-0.30908790571525779,0.21414531229966824,1.0354250621805905,-1.5687224880351422,-2.1899491794612791,1.8373970279689793,-0.27079631858968656,0.60861941173615441,0.021339261815220827,0.27400355196954845,-1.3398845999284468,1.2484677821129631,-0.72913762715542574,0.21662918821053101,-1.3622345581752744,-0.4387808402063979,0.19117765336329559,-0.044278738290776186,-2.157846589101986,-1.1634721683569627,-0.2156183426061222,-1.0774855138397594,0.23772439016593969,-1.088535277503661,0.28489241546256677,0.42839473816833551,-1.1151003924001568,-0.55541173050608927,1.1741675954362734,-0.15939040931979404,-1.5461023051297138,0.40886945985913614,2.0204483616877549,-0.14761774684591084,0.50661123903985095,-0.70176436860767544,-0.18070837322083266,-0.44256023836248087,-0.13528432490444645,-1.0042861304706778,-0.34920194932607418,-1.1204791477598344,-0.50353860707009834,-0.16714000466630691,-1.1419920239585528,-1.286608638017352,-0.83754488919848613,-1.5449938677174491,0.087858653464664205,-1.7535466315301143,-1.2833069857961124,0.60019441469151025,-0.71002679499229981,1.6645413567207594,-0.17095265742808877,-2.8611836216715201,-1.1773640626749917,0.23257389144773932,1.3674011022520178,-2.5278999040880175,-1.1340082223839452,-1.081732650270832,-1.2300548895543719,-1.1085647647812371,1.7594678952068599,0.18269071507695345,0.41976114098757183,0.42641133165235195,-0.46698961066049172,0.47788036695199643,-1.8556340871567043,-1.5925446808203674,-0.23047710019053377,-0.021638345225775405,-1.4380379467476865,-0.048328575118052039,1.238025955478502,-0.054762423000512837,-0.046668390385612636,1.8936096654722121,1.2948399817995431,-0.88945344782288671,0.96368157946885158,0.93544920791073349,0.46050216584734205,0.61244012034085527,-0.56920244399103581,-0.27038240258567486,-1.6887313301815488,-1.1612132866285425,-1.3250277104036265,-0.98676779011521876,2.0049130591636866,-0.51570307596193321,-0.67627892885421903,0.19646838480491724,0.71429704351188517,-0.50767439030717965,0.00063829420655425728,-1.0558564186917492,-1.1908004964969727,1.1718127305294865,-1.6079943322958101,1.336468519982511,-0.94669695203569459,0.075616643784686396,-1.6139214091085934,-0.6150467303904591,-0.88843270591264767,0.23236916535716079,1.3797297126500947,-0.35082751739220508,-1.139041404633466,-2.4337056785030193,-0.8123635632809828,0.17063767051491557,-0.65363431090618873,-0.3604056557773917,-0.35156745065793898,0.16846492260708285,2.0660630677056111,-1.2540841913015524,-0.52835490779608341,0.45318620484609107,-0.27759902409241788,-1.2621020201092579,-0.75986545372610081,0.39014518588526592,1.419339496960873,0.36534867337811755,-0.98841315154002074,0.42632354740673234,0.7936954788405659,-1.4857464121179873,-0.79578578649650056,0.19233722434809131,-0.53247955955684867,-0.43083344076724356,-2.2301684633488823,0.53758309827182604,-0.29383671293216967,0.061406871343886317,0.084114980401357953,-0.34997448415280641,-1.4248457450739855,0.82892423407631033,0.17407930526424861,1.1190974252036949,-0.32647862785676995,-0.44338002412992739,1.5224102293740842,0.95129255794554068,-1.2687855707460394,1.2471647760239744,1.4100019430486985,1.2460359810434665,-0.6096689925503237,1.5851057158429585,-0.53338847956165847,0.12405027610325049,0.64363262545890221,2.2365951315654526,-2.1039619593254857,0.34315315373659816,-0.77176645155876911,0.075128960614543702,0.51853346146548618,0.85963525427305365,1.4948418847462648,0.58380799287498852,0.013915655481939735,-0.50258071232547585,0.81001936181829759,-0.35129986038341848,-0.030908869279759513,-0.69112321772577634,1.065691497203856,-1.5418711262213309,0.33992514758788078,-0.6850446474550892,-1.0945324434264045,-0.27491697276717197,-0.47232630275164589,-0.43611982950977685,-1.815350016085824,0.60624501765775196,-0.5852918215532773,1.9540710103904926,1.2754331223761233,0.13808872994947577,0.21751254310834425,0.80481781038385403,-0.92351759146725354,-0.12994741930666198,-0.77173141748457186,1.2840861803750296,-1.150660984269801,0.16811676922172183,0.25023128495939867,2.3810392355492365,-0.22978611899692306,-0.21333525106342166,2.3533776746726551,-0.4324045726037602,1.8061335581304494,-0.1252992140843589,0.16427380942734715,0.31602979489872524,0.31730485500410216,-1.1429563459463576,-1.1404913032970294,0.30264150769810411,-0.25313376384545921,1.0790764232402523,0.87729847908275205,-0.33864613120516562,-0.61088308721015383,1.7219417489566844,-1.1230671466327458,0.78275702241329703,-0.17264577177523036,-0.98685609205736391,0.4452872730300762,-0.29833410061081983,1.3125897967016344,-1.6400006757678425,1.7078577623969715,-0.73539822432200808,0.89509697342131189,-2.2484743872875637,0.80047128210353802,1.1218478201589295,1.3321484106757093,0.98860508209938791,-0.19064660685252949,0.5618339312146573,0.44704836312568808,-0.046619828482555095,-1.9712442612406536,2.2974013685883845,0.10806485643045231,0.94121397377151472,-0.43449107209596477,-0.039956752538095996,2.2808832697834602,0.39550303349909488,-0.024056269590905906,-0.30562648235202661,1.0931564173867956,0.066933017786960244,-0.9288788826769877,0.64116032166877501,1.069706556552666,1.3937579874847035,1.5018532414315333,-0.31967978899242283,1.7677090916096863,0.7230007323616251,-0.34859669876546412,0.45491060231582081,0.23106605375472011,0.28048823682367546,0.33678063542759773,-0.2390213212731703,-0.84909352845395936,1.9054921967063276,1.6053805228785776,-0.95841135696023994,0.41946336313857563,0.46243587087345883,-0.60252354907437045,-0.36569253132811452,-0.45629752024115,-0.30967896900210873,0.059042082190672869,-0.57631855018876765,0.78745248838454862,0.82894316214621488,0.34429778632001723,-0.59158807457692486,0.81335937470974651,-0.12509791623473748,-1.2606831681226227,0.31572993151937845,-0.50882382058836295,0.52169021491169765,0.36737719212689784,-0.78252411328617921,0.55229849133223852,-0.83652514226245889,-1.0013680099044693,0.59069705514251691,1.628159037811062,0.01139481839949308,0.014113484177352274,0.5399694372652053,0.55543642161048279,0.68372675016809725,-0.41655101139143408,-1.2616818884929046,0.5926907146776611,-0.80524058482610295,0.5085918651256669,0.27530530162011313,0.2167829943771859,-1.6737382621991621,0.77093717059384492,-0.43788069583204559,1.3104234406204143,-0.7702716115866447,1.5770379331975504,-0.42142457409970197,-1.620039251928413,0.82962654021900906,2.0149325336166837,-0.26144851505600325,-0.62455328890309769,0.52804619475586689,0.4233161613138588,0.60525775586085817,1.0924475831663447,0.066305771717658404,2.2278775028569839,-0.94292995452975625,0.79373432113308584,0.93332655396822817,2.2766961245188821,0.99616305149648887,1.0295816426674977,0.58324459379726823,0.30962083028777471,-0.013403016258661115,-2.3597253335973538,0.070279296507125374,0.35325143720448154,1.074567453244565,0.21877955634309842,-1.210593968508656,-1.0468431318960423,-1.2608635599675679,1.4212642956907271,-0.90212664463025516,0.55995108632713897,-0.40605826107833592,0.82107910318526023,1.5929309659876014,-0.95192688062087483,-0.46134440425455875,0.14589730515498561,-0.15792995185119085,-1.1856294585867564,1.5878314588031242,-1.9459387397067271,1.8258752566213921,0.45862387448419073,0.73551500932510583,2.2403538019973741,0.371728970536365,0.5338003272917945,0.69282699047971119,-0.79266187699003565,0.3743642568086899,0.83732881049269492,-0.55720843251228791,-0.91790194989355678,0.32467908321332672,0.44587021778608099,1.7156277005960037,-0.44569675140063347,0.83422019472883546,0.54978567037982851,0.58801810362803331,0.22471410772377443,1.9186603625676242,0.74051435479062244,0.18138598114186152,0.57917896982629624,-1.0728913519901615,-0.8817680032251185,-1.2995368285674695,0.3360984814974004,0.35783112991175076,-0.65570865818291024,0.23199657101398671,0.98114122811301108,-0.74932177273015321,-0.28375114610646196,0.73102495430568004,-0.28510029575206952,0.26424080490958646,0.3435272581730241,0.26971284024832259,0.34683516125874803,0.23004115482159473,-3.5044958938439068,-1.061208180512959,0.32440620694888389,-1.649994022965144,1.4569693821174776,-0.64603334899253462,-1.000123472769326,-0.14776032274862796,-0.2414403072535404,0.51607276433071159,-0.15781348681196589,-0.50751796431514828,1.4964125119793941,0.10481653923758043,0.00063526075331511007,-0.84330795572646911,-0.037561604251784203,1.1190348492212552,-0.74120938579169093,0.15552794509604217,-0.99272485191977278,0.0019187605386819227,0.014520935536875355,1.2856288919062899,-0.10515656142064057,-0.36742492633531765,0.020866815595407828,0.034835051716096341,1.1681520253611579,-0.26358429810226675,0.79534700663211677,-0.25074608351372873,-0.19791100277490312,-1.6625958600899389,1.7470527805222433,0.67989200173705289,0.70930165853851246,-0.49783263132417321,-1.1491000990880134,1.004565488457382,-0.78075433846716891,-1.7668227392528357,-0.3091122219402565,1.2137734306344832,-1.7613814206523237,0.22134013205627087,0.19312592353471336,0.35534835668555037,0.88219913766788172,-1.4461551226063274,-0.41686228848204543,0.48639070806837531,0.8819941037562401,-1.1055706997003056,1.744104727880905,0.072410939818076753,-2.1402861275969003,0.34696299391669549,-1.1838525914940627,0.19861063129242595,0.53991266677373373,-0.61560438597890821,-0.50708419686189665,0.7238096524002865,1.0961029663663873,0.25995318145805396,-0.82633347898064002,1.4642706499112741,0.78184294779474139,-0.46164400283788104,0.59906238557760116,-0.72572146352675737,-1.2525302352792074,0.76432674578135884,-0.80918647227210416,0.49912580952872604,0.66862452736108147,-0.60401829700607457,1.4003745818338373,0.10612265727390706,0.28347233732814398,0.017089965914041785,1.2126825922604356,1.1331394061847246,-0.88683880351568267,-0.69692980969018392,0.10141381246297627,-0.53695115670331273,0.97374122193815837,1.111415238213987,1.2680101152086956,-1.1033701634572894,1.3208710654682276,0.29098447145901057,-0.54323223821677369,0.46996512832289833,0.40434523915303272,-0.14745272167352813,-1.4431388490867261,-0.072429130899708524,0.17294206046492289,-0.97640071525684791,0.225727700214433,0.25162662050637485,1.4109994415921723,-1.1338614325799803,-0.086562674157110941,-2.7759196413411535,1.4133691992662993,-0.50007077474755379,1.0841534078973367,0.13362456425529093,0.81236977246086362,1.5252917066580731,0.035305252217991787,-1.4613208591986822,1.6490171661309316,-0.18529128583203949,0.76134276695861258,1.0594760576844797,0.75406117493815128,-1.1221064382401456,-0.16101750605597825,-0.53740409872272454,0.54692435342687673,-0.086519469540462787,-0.6531744814759699,1.1973715194661201,-2.4008584616739013,-1.5151163070464793,-1.4527245307033694,1.2432889275492038,-1.4226859273884243,1.2780792450596237,0.4421383527711894,-0.46704269263165848,-1.1883861255023507,-0.43078573064535597,0.54638094005075122,0.86802886392770251,-0.15921961595091094,-0.71318829299898401,0.38694885549894897,1.4377879285987241,-0.083243211660035524,-1.3681811739176168,0.76206660285189276,-2.2473264172735159,-0.098784090811638622,0.19925152283088063,-1.2145051663540656,-0.32105274426863872,-0.79014424224738045,-0.30618774408869859,0.74030091692087541,0.67729221929460282,0.62447040940918175,0.60831403897005187,-0.40959557811453695,-0.45909408524443146,1.4242699417482361,-0.17523976821117607,-0.60423437250180712,1.0375526816872918,-0.37189235017560485,0.31786550317717754,0.22147621581889002,-0.66898718246031419,-1.91282117273109,-0.35675548996557743,-1.2309938780600231,-1.801779292664087,0.8261773698017042,-0.26290646349049662,0.18340101029910458,-1.11478571787259,0.92516215151787273,0.19313703259110868,-0.18156023524106757,0.61045723646495131,1.6321534029464819,0.022560090496015917,0.72975785541791816,1.3977870553211662,1.1189782798567971,-0.15541245498086237,1.3051772184987065,-0.15939592314571988,-0.0045691372529907603,1.3352700803665201,-1.6893012323516983,0.7902306568727312,0.1257306899445263,-0.01669624586083247,1.1892184330064899,-0.23782453346295446,0.70735026392838563,1.4172679329365334,0.176218568204209,-0.67979984029400953,0.098584010201843139,0.29524719729775617,-0.10188250366996006,0.88391948469585013,0.049613031650189432,-0.10881524236972256,-0.48123763369022121,-0.96577409922098056,-0.035185136878938282,0.082545962765756389,-1.2872976804696679,1.3927040001373492,1.364348315688716,0.22073125308294406,1.4727794169298667,-0.072370464383836694,-1.0817068925959379,0.57603165564273839,-0.34786094114603755,-0.62141130733150174,-0.22332634082469194,0.25519545776309055,0.035631914615628896,1.141160185143167,1.0050638671705079,1.6445876729636379,1.4549066195853391,-2.1983526174174748,-1.518439119894923,-0.8945058425337874,0.75820721164888605,0.37132381775544077,-0.63990813314186801,-1.5070337775784759,-1.633637929297328,-0.51295593711384246,-1.0096827951200189,-0.42951056967279688,0.10058326036342959,0.67576932918404065,-1.1626434452119085,0.6074872901753835,-0.04786396424070645,-1.0633148788537576,-0.46069484119248555,0.64304161453527253,-0.78871918826447074,-0.24389086553012798,-0.47059578663212015,0.097602278055973546,-0.7436529730674768,-0.061339567739510686,2.8787599918212101,-0.76182456298771206,-0.66653410960265524,0.17317097982067584,-1.1773799961611553,0.07247137973813797,-2.5574844034561282,1.4770447375522691,-0.066865647357104929,-0.73512231503936609,2.1330094863520936,1.7091529799889595,-0.6217032430590006,-1.1612534136810402,1.495866003836521,0.34741529599314436,0.26580383159272514,-0.11028959544571686,2.0567876931357456,-2.4311320773831935,0.36828952689419581,-0.12451960929073563,1.0926993272605661,0.89541204144558861,-0.43206709680643895,-0.029830875338095433,-0.24998058156928396,-0.21776754649928165,0.90018274764364503,-0.56042215089317071,-1.3366186726217515,-0.25876671374380789,-2.0830648189803118,-0.6427813152446229,-1.2045901118184403,-0.73436550892574737,-1.5213789603108188,1.3032009568361844,0.16787961959124997,0.15002030177643172,0.1434561313740027,-1.4282132340332199,0.23015150076937554,-1.3807515021077561,-1.4497644219289902,1.5798041545681396,-0.90161025374401937,1.6697720847681732,0.72183303419370504,-1.1097622552020063,-0.90811309974636156,-1.4434264327894504,-1.1047323355393326,-0.21523053072222167,1.6478028760296384,1.153681250010131,1.8713574946035334,0.84589488173809935,-1.7113795673375043,0.68898192500429023,-0.00235555855065966,-0.89738516944018676,0.031180639767707546,0.24949805842554248,0.31235672484325205,0.3074064421795073,0.44159375545792501,-0.96083873892509308,-0.839183515455036,0.59422501266503103,0.64635616711563715,1.5919854057456155,-0.10505554433637734,1.346116844888495,1.6139722536644765,0.69448084982937175,1.5239978518622221,-0.35522848555047493,-1.3760888384983172,-0.43073067522234576,0.24402143379795785,-1.1174650923318254,-0.040835773964113906,-0.71393927193704321,-0.61036411356688791,-1.6842841344269499,-1.6407845952031248,0.30200426873973807,0.66553310262115151,0.23655453089610221,1.0328869417269937,-0.54484089106826583,-0.64011252980344102,0.20453245830313668,1.8408334934446839,0.17306830640781187,-0.42530045920195192,0.58002797568499409,0.52611157243714179,-0.16873013666222514,-0.78817346168474633,1.6338098183615288,0.6300581666518652,1.846740732464792,0.25348044891026911,0.68788771066952092,0.62768378037058359,-0.059954539092562924,0.73350255299122979,-0.21270750867952126,-0.58222881194865483,-0.45584813450869272,0.45520955826510145,-0.018009558417675955,1.5963947435445556,-0.60653347290711734,1.0701318325752793,0.84341058511430311,-1.2951759206944096,-0.40563935259194206,0.46178952683233848,-1.294304984188291,-0.1089791155990172,-0.46512518055618596,-0.067455385377496194,-0.79931950916539685,-0.076709806431109515,-0.68988802347158862,-1.1795966683106369,0.37550048430975186,0.65639695887281224,0.10539670219745501,0.95209555065517582,-0.86299212298476746,-0.62286528559732102,0.91217989847362335,0.39308426418792008,0.49279861600944735,0.12530964457949967,0.59621669195328275,-1.2637574973951675,0.051217419787258141,-0.14607469302912157,-0.40222799822270594,-1.8819783180017471,1.2832828776937837,0.0076753696355756846,0.12296567831428931,1.0512495347569024,-0.26756607529041665,-0.47699227956184448,-1.406449694401698,0.14192249442094176,0.31566677010816668,0.71681528143546713,0.85975822088959364,-1.6525960298919278,0.028618368283009846,-0.06154434344195691,-2.1864275480028588,0.16417367139035974,-1.7693293976675637,0.92903555623267742,-2.0413910590017128,-1.4647852541934139,-0.12299712553191579,-2.6622446665027053,0.88136570889749066,1.2968812135641976,1.3899699224562567,0.31336352113930271,-1.4609243738731019,1.3349050438593097,-1.1071020043781514,-0.4946947325264861,-0.77956691771485387,-1.666485794352855,-2.1411551400976965,-0.76901395297558939,-1.1031220076606376,0.024755913836310046,0.31665065727836045,-0.68755752188710473,-1.4163304601983686,1.3253136260885054,-1.3360554647939109,2.0039952755925032,-0.88957588579122737,-0.011053810931857587,0.77556298607981067,1.3725438622571242,-0.66974141478243521,-0.42599881401046424,1.166437984211794,-1.7735583179103844,-0.75530841498923407,-1.979713601785779,1.0607259137743463,-0.71266758203439584,0.1766662926664003,-0.53910151755422187,-1.448482182703632,0.27718517320874414,0.013734329191886703,-0.37580583916873123,0.99331531469490864,0.21957407326867598,0.25249246620800303,1.3779377562060271,-0.12205787788766881,-0.90913589257538363,0.048213547839926603,-0.56192145229401358,0.88743472370899079,-0.29096002596319859,1.0646382798058418,-0.80277127314937957,0.71821184220798617,1.6757126003570122,-0.0097175667028390617,-1.0604197867822855,1.4310124612930466,-0.92958984723762206,0.16547859704665219,-1.9493060996920826,2.1206359817355529,1.4574207026439854,-0.93752016351540979,-2.0629869092413009,-0.66028869590584982,0.76276072361860947,0.9834894211081896,-1.0022774678473256,-1.7672893945704926,1.0157771023067952,0.71390025247998123,0.49801964005931892,0.61958926090140864,2.0439064472792468,1.3360161000494069,-0.93718998668575026,0.79688566168106467,0.70434285769178839,0.72351530099652761,1.5846809040464387,-1.7650430920806819,-0.72197954802624587,0.58875161203449577,1.5983202214260812,-0.35836401765758108,-0.0077046247039312702,-0.39955437116281822,-0.77767185418183504,0.2436010828548637,0.55201546056536743,0.20834361300284401,-1.0797535350437726,2.3492166291611176,0.44066385102494154,-0.11976608795606342,-0.75326289278046465,2.6892768501904456,-0.59586805242303997,-0.46707602135942494,0.65637672151322257,0.84117399546278682,1.4843012523103158,-0.90247555721153183,0.29726470512125647,-0.64582865681311041,0.86336867990347788,0.058697689547649555,-0.49029601289304986,-0.62429824384516241,1.6048057743403532,-0.12412171937624068,0.88209477245983592,-0.14529685140459547,0.5433785469321315,-0.52992423496087449,0.50442541132595464,1.9457819580769795,1.0454442923126954,-0.3223612728445806,-0.47446655905072971,-0.0694882427671379,-0.29467829566955994,-0.13009933585363717,1.6628226452983204,0.82283193795236875,-0.011322566273415846,-0.70937553699734657,0.34997309274350857,2.2361241899855346,0.97596604270349707,-0.49989017349017473,-0.77970903484351017,-1.0568008872264703,-0.2454174512516315,0.98913732217762207,0.40710683736860942,-0.93647159902262056,-0.31930918183966633,0.38654282729763367,0.36590396642040968,0.60358564204356047,-0.79991415430108126,-0.67953885025631389,-1.2804521255605326,0.5247873867961752,0.53739576625870167,-0.95674283917757197,-0.72500649933083627,-1.0370629475420237,-1.4542640918807015,-2.2055057830852229,0.17690242084525762,-0.01346673935134628,0.43910081852011024,-0.52376677108367398,0.54425766906829764,-0.33738022987626631,0.40584498150016984,1.470358012258095,1.2797989449063381,1.2497788628341595,-2.1598017078323641,-0.030188955505922436,0.19537599085612364,0.30490564075888854,0.39663706216145145,-0.030031691564461723,0.83660650135187287,-2.0944774207934733,-0.67841344708033247,1.5109869370997686,0.12124376967687528,-0.55241901452159214,1.2842212511674169,0.44347983181103734,0.26133632761656012,0.5618772555107846,-0.19995141214418125,-1.1816633832109051,0.21647962534371193,-0.70978667139332519,0.8787689878175815,1.0688391540883211,-0.081949070052863712,-0.40932834217078423,0.064480989506473227,-0.82028302038091894,-0.44232879579897966,-1.4895271959922747,0.053681031957295969,0.27629560309589951,0.62877229467805107,-0.013278951088412816,0.18620870417312324,0.93518637213509304,-0.69739592176172005,0.5967640761610058,-0.53875778087167114,-0.60818686091324003,1.2676741565838683,-0.010275987336880383,-0.66598875638571287,-1.0216235131707105,0.77042317867399235,1.3258914437907585,-1.4374973047580795,0.56844723148670462,0.31579102153801492,-0.72823823381569142,-0.17785963678922156,-0.76123316462065882,0.75772678524164971,0.13689225343195188,-0.15712759217258448,-0.80778888557932693,1.69717649773818,0.19590288373889125,0.52834168622530764,-0.78970972793557748,-0.32282004194408526,-0.75538454252814802,-0.13731567422357455,0.1209723638582559,1.0950839340434553,-0.70232551519063624,-0.68013179031108628,-0.38952245810117547,0.15473368436243667,-1.3361939053779985,-1.2057064658789822,0.492643986799783,-1.1294149544928225,-0.8463085551708418,-1.0636303654115795,-0.17865180321047536,2.0083868517822938,-1.137378468620172,-0.071234066346482355,-0.13698104655175955,-0.12045638611763725,-1.8791972137774782,-1.0967167612493209,-0.44607699746238139,0.8177265795611216,0.70420264256730913,-0.39378716699164784,0.35716862255731052,-0.70653273566662378,-0.83946596415886243,-0.50008192718325006,-1.0616672826355815,-0.22441664294113392,0.66587477682445817,0.22066099561080812,0.63206175896191297,0.68737102976028686,1.2152051651735687,0.29689136500226965,0.72076176674576198,0.29097881204706488,0.27233421122545071,1.3774042475426209,-2.1460666855238646,1.1237406481573884,0.45372778862226365,0.45300305077115016,2.0783063072634533,-0.65568138031382583,-1.0247509018705481,-0.9633487448213075,0.080111710205771514,1.0905036385949149,1.3248588370154846,1.1014796241002349,-0.34422841583690122,-0.037945906251846878,-0.87688711039577771,1.5016760558905695,1.4210969739573347,-1.4938274460014467,0.54733195416499258,1.933010869825968,-0.31599160431123002,1.007995923764204,-0.2068412962754004,1.2839386423668049,1.3279066722489934,-0.48891571210864848,-0.161406263750973,0.16797832969054377,-0.48005027165279773,0.9539165796261353,-0.60564769460997914,-1.0658519144479821,0.62395802052335902,0.75749151142687832,-0.94019217425805224,0.75153105890293059,-0.85789378236081038,-0.2151499096232421,1.1517106681073634,0.25967046417812722,-1.0530645615558889,-0.93822261598570411,0.19683058449445157,0.57730576735033512,-0.073180051475333116,-0.25063703112240932,0.48889510244808376,-0.15358403447379138,0.069927419180289302,-0.49396614929698801,1.9858336166777288,-0.91061766907974129,-1.1029096198866579,-0.46999958033400779,-0.22849691716762643,0.379568632820527,-1.4204715399527765,1.1648554507610347,1.7373775173146524,1.0652742606188381,0.68833342185240409,0.47107856507878926,-2.1674096871105122,-0.32387115351491491,0.41110002101042853,0.098937616713714302,-0.71773074126584213,-0.20072654851017588,0.14839407055685308,-0.85779355515306954,0.083145772734469978,-0.47379887922779818,-1.002921745295231,0.22846625116323438,-0.20712733741340494,0.33909715579603344,0.56786192056001528,0.67269304770350791,1.9457036442243212,-1.0027246631649891,-0.36599470091634234,0.072389155490742985,0.52930971499307744,1.4163677742889613,-1.0130368811831538,-0.33357335914835673,-1.1428549510717791,-0.94903397908782761,0.69100649841783468,-0.19233543282327331,-0.67635867079553613,0.1618298304331903,-0.31269023373170257,-0.17464630973970216,-0.44382903561674658,1.5701397274788864,0.40305482299201634,0.6755680654354318,0.060046217319970688,1.6654623384827838,-0.71957310239308103,-1.6722233973808251,-0.2103714069672413,0.48085357573995302,0.2108210272759922,-0.045725265167335702,0.027275049281351871,1.4274300838327341,-0.84400826568805065,-1.5901523365788319,-1.5181389793698505,-0.57454826868265385,-0.67318126273872858,-0.10764552987119262,-0.97130192729218479,0.48954442579900564,1.1507962189330347,0.10530052772592643,-0.94848767035569548,1.1583540870831555,0.74169836764772601,0.015360195929946006,1.029528668818362,1.6309417218588156,2.183411721500105,0.064618769341630702,-0.82313561618328035,0.57111808408704701,0.2340780990866824,0.15954141486108683,0.36309539907060751,-0.75134501659410013,-0.38785723436949904,-1.3786652631177609,-0.61389170111547753,0.051463451249889255,-1.2558806586719224,0.86876097861437873,-0.90913030915776272,-0.80325468085245777,-1.1241953623311514,0.38320063364307111,-0.58720580805804923,1.3467037758354654,1.5754771950332613,-0.34340559462499448,0.75524486965478332,-1.4252504256009242,-1.2376646010469952,0.67496641268624202,-1.2287504450276501,1.3065568419989781,0.44349442748976931,0.57624828373522441,0.46027360759468849,1.0683001359624789,-0.14627602816934029,1.0327518408843555,-1.0440116696921566,2.1704603160033904,0.79116901024693764,0.91428613561529759,0.016694623262785264,1.4436967592183656,-1.7998563353331198,-0.95070387929459832,-0.91945223195593462,0.90642951035985286,1.1554757494414296,0.21344054519956104,0.53627256139778356,-0.35368592030714924,-0.83607144060356953,1.9966307800838683,-1.3657476557423665,1.2024616050425283,1.1421246771812033,0.33491247979685956,0.62211046710152806,0.35993446394993078,-0.49936530436727988,-0.34154755844892204,1.2575208296549627,1.2463772310022794,-0.5251869631581032,-0.50743726255515209,-0.58607080311363979,-0.17267089751490958,-0.96817705316793634,-0.49039571386204256,-0.043548908874953399,-1.80512869924582,0.78464032022251651,-1.4619390966038661,0.068191646751187843,-0.32273084581370687,2.2642654921657401,-2.6998000044714776,-0.56917637098829954,0.67767175766253696,-2.3281333456058593,-0.88766960561617148,-0.47011186435388586,0.067926185050716861,-1.1278445281074627,-0.19046071691063474,-0.13259108815171713,0.85723234215288824,0.21244356639718417,-0.33236719331603143,0.899298047561926,0.17467103981846493,-1.2304246485955417,1.2732780236958652,0.44929935676657634,-1.4387544242716435,-0.49037152766659065,2.2956411217590795,0.51730985440939825,0.57228187598279556,-1.5643883645394536,-0.40640321876603536,0.6236337233532756,-0.53584365342864959,1.515028762863539,-1.5904333277728648,0.3611264265503657,-0.16806533623446124,-0.40558980089277008,-1.9732436263417736,1.2100115327410883,1.8952618842091848,0.89886709251171548,1.3833274804298674,-0.92588047679611796,3.6320079832116372,0.61887183346994434,-2.3180763114021579,-0.61209827212443479,0.4295799475821061,0.69946234929642415,-1.0155127545452185,0.069502065575000105,-0.20972387289662442,-0.5634622537060866,-0.27811392756334558,1.0628240877013906,-0.75556980647772598,-1.1852386635750474,-0.27793924485556504,-0.33048412413033013,-0.76522465899154035,-0.069884540375685117,2.1894973701630978,0.32299749987090792,-1.5584039786328734,-1.3312039032660463,0.093016925510694751,0.19628479960214226,-1.3804251085436712,-0.93074895003721414,0.37247496844979366,-0.25956307086892871,-0.32055935350036935,0.036147507191636785,1.0127881671248435,-1.0651666883873996,-1.4440286613305366,0.93992875821746991,-0.15587455113736551,0.55326137292699584,-1.5322362703114665,2.4411945502822543,0.97518891392024687,1.6028978074235161,0.2554689838144148,-0.26080909811894903,-0.53731671737699305,1.6146363231575789,-1.3236361705177506,0.90679318677781906,1.8508988800657467,-0.15568366450608911,-1.7266114288891938,-1.4263755398741975,-2.0825474714392551,-1.0764599764810838,-0.67411902173343408,-0.17461701404326774,0.12287530404565919,0.75384495285095454,-0.17529421821314678,-0.30041188059848378,0.32830704911271463,-0.46950466473104674,-0.29930149122430416,0.38199077043763857,2.0786556867801842,-1.1615789888356245,0.68893601066169352,0.68455499445211365,-0.32731071413437368,-0.31106188088577241,-1.257759376339787,0.27227149682008295,0.87710605646316209,1.1772370996497046,-1.9831321517313465,-1.17072150909645,-0.11710809524642178,-0.44612755513126112
