0.16650492383456197,0.49565890923489192,0.71247126141724915,1.4861495166741066,0.42096415605009241,0.11932801981146579,0.49291168200321422,2.0077449736713477,2.3040937869680311,-1.0544320774233067,-1.0636570513770445,1.288604142448823,1.2251775033012826,0.10069535999593349,-1.3609002303562416,-0.89439720006905243,0.38220971782954688,-0.18285936164069183,0.084012981401766218,-0.060880534715477261,-0.5963825470601648,-0.62893946893859554,0.20250353702754512,0.29127536790699549,-0.50422242294548358,0.10915121516188309,0.42246387693830573,0.062749670988501427,-0.0090010439682468735,0.62412437113881503,1.0328994278882928,0.32178633836419368,0.84844644784139522,0.68652275118637218,-0.073192007380350865,0.74294005469667701,-0.43804594881175124,-1.2054398619134081,0.84844974170715592,0.24033194414465425,0.9104379077376431,-1.2913384305375228,-0.68143596662178929,0.52662784065384127,2.2479589159170326,0.26101484972400973,-0.07397137017300813,-0.53414632911036219,-1.0139203042489853,0.30331518791532669,-1.6603633025159032,-1.0031177516712422,0.40619939486405771,-0.41394139698898724,0.74565008620627593,-0.6931049475717932,-1.3871454221795496,-1.7241533164022631,-0.77586278139694798,0.27965763883836436,-1.9259457530568547,0.51198640381196636,-0.24900013201951238,-0.54598521993590543,0.99800967437827748,-1.3731121729725717,-1.2065147229942645,0.080932076091869851,-0.47862808632604992,1.6732081570224211,-1.398554134206194,2.4946325422751565,-0.91850203542226905,-0.6106141764105758,0.41680423444662384,0.30397397166844975,-0.70090516249607071,-0.49316638825418707,-0.40001126248546998,1.5205877990508507,-0.2068457980602581,0.18017763101665812,0.69905674947691177,0.064054254139166211,-0.99878563450790181,-1.4261779869583495,-0.92326470611165867,1.7516982684906592,0.23061881112094357,-1.3826490310367971,-0.46744807220748225,-0.93966257893156457,-0.020961611394404108,0.60367774130556862,-0.60863284083950608,-0.029546297740280943,-1.5387271577517494,0.52330104531141408,-0.28465627703567126,0.039439496565127095,-0.31764270797176836,-0.73865053598081432,-0.18228270032530586,1.0269498780840043,-0.22145847668538901,-0.67936403746064122,-1.1611129259186781,1.0652573485744103,-0.70514867862253428,-1.2223090637759515,1.6414834485242291,0.36648893961466011,0.095634462198545295,0.074394819182346944,0.68110181555325133,-2.0764807461289676,1.0636069447007097,0.6358451377375367,1.7985392428269427,0.52009546573014709,0.57908298803163083,0.89587463546719648,0.70656789312144797,0.87082776515876925,1.0487333603763662,0.70427926635584803,-1.3196734249954651,0.50476616113669603,-0.71906175146408779,0.31015913699040354,-2.3319064407546177,-0.35591490908480083,-0.49225504087131733,-0.8774090595496068,1.109583320514774,0.6308582356396254,0.077455301724039929,0.67084430014879637,-1.801096876757001,-0.24636463660672214,-1.2981892937137478,-0.61743676581823415,0.1786133473772033,1.4127638223534729,0.71371186131311382,1.9384439093534578,1.0021209705312824,2.0788069906784798,1.5686480522475501,-0.56857216654900911,-0.070328868832277514,0.099109298042830987,0.21180896698976173,1.276310433485446,-1.8868028153427121,0.0037367632456037653,0.071242128110558106,-1.2492643298183255,0.97554555060498316,1.3617262552236069,0.098889583568892159,-0.8743067679818991,0.88211353678009208,0.47679748860701437,0.84327584069381056,0.52237941825801237,0.48696501336570824,-2.0310580955118991,-1.3118065846294653,-1.3220613532911374,-0.17799562361373372,-2.7124861515332745,-0.18049352616782963,0.26183397624594984,-1.3320854708904908,0.071711932224665279,-0.59361539714663913,-0.97966645523111884,-0.6036569090535242,-0.26467138872080481,-1.5127784201612977,0.13363651301156723,0.23614060899684658,0.24647768204529477,0.74564146180483315,-0.049782659372631786,0.73337656585044153,-0.16094711790695576,-0.96800004962220165,0.092457491125507149,0.54045507648196545,-0.23347308657912533,0.0064204944628493436,0.82275246711863215,-1.0343599833569155,0.85175049793859292,0.51427236360801665,-1.7614401675099132,0.82545301978813868,-0.45393557998224382,0.61125850813011284,-0.4508516446905404,0.26331472797137534,-0.80692194529453742,1.0092595610203947,-0.3849014026769853,-0.0091507057714887118,-0.54465019579273133,-0.77486329512622343,0.88082581117401004,1.7216184421059502,-0.25948945629328851,-0.1356412938165904,-0.12012999955777763,-1.841540597727044,0.077990664695066297,-0.13057928313854295,1.5395692483364372,-0.18373080393536337,-0.73372675529141163,1.2839321981625835,-0.19622767685699122,0.6627044584262628,0.040941560718398655,-0.13448855455101003,-0.43046873862987534,-0.10778405875187015,0.40909920665385957,1.7665730015585985,0.17855104041970557,0.83885949669412796,1.7860405255061451,-0.54975919604793322,1.3503225241241403,-1.6024179601104001,-0.59234843924789904,-0.98684112986686046,-0.1745416458692749,-0.519185907758417,-0.91338196461119325,-2.6915870645704945,-0.83593726104314581,1.565666687970845,-0.33622772510505661,-0.27940162133274055,-0.7690335968705857,1.6453663696459073,0.3104812975286072,0.69751641194279657,-0.84943224784111282,0.76665083804920209,1.692497791998901,0.00040354682173795076,2.3997316194941751,-0.98590005866376496,-0.25723911951699141,-0.3614385646893461,1.1674534760478628,1.481580306182644,-1.7574832244569445,-2.3115551509957957,0.13976571092207518,-1.6136054325829841,0.61000642542465289,-0.49829979651816325,-0.039403860116795121,0.15292788898472304,-0.85549568746812776,-0.96058432702999785,0.63789309154611273,0.51693709870291638,-1.2291213681804978,-0.31743634410727428,1.5160465958489497,-1.5926152862033298,2.087077317303478,-1.0093429268755236,1.3360156294170984,0.56082761335506748,0.42018364731695018,-1.5261158600075406,1.6721620717702828,-0.085741633185889912,0.31166881952790182,-0.3425804662649013,-0.43746812219894882,-0.49323868050778369,1.0690954458127548,-1.6801088464943807,1.6560637535104981,-0.69978674244779449,-0.26634325325238378,-0.18514537880298326,0.85114629472096237,1.8638518635973185,1.8460578212391956,0.75978167757878767,1.4793243314720437,-0.55269617385591507,-0.60043840316322616,0.23398795931057742,-0.055980928699964322,-0.55529402695382202,-0.84246980563072715,0.79854536046802083,1.2214952130187633,1.8782813351073691,0.57772878120802684,0.70258664647428659,-2.1478381526302308,-0.47263856038332963,-0.40781285925137817,0.23390056698076736,0.096117817119608734,-1.6347476141623309,0.18399396695362871,0.20519240113790074,0.23335943602686571,-1.0053853030244591,0.45342123199050316,-0.051573277083213978,0.82705146793147066,-0.27655406757391682,1.4994303834322367,-0.92494181168496825,-0.0093289266416893245,2.1859006100549943,-1.231943847636729,-0.57384441362923599,0.26925645121902569,-0.68605281018858288,0.66541699488285844,0.69386870315220428,-0.85823735032211024,3.5880875261682901,0.46425504532688266,-1.052432058515451,0.18088660044117694,0.47285234547729821,1.3870430542689669,0.098649146466840518,1.4172199065094568,-0.10418720196222712,0.28434010778008956,0.59686556983817318,-0.22526253072590161,-0.49265537496906608,-2.1162228291637777,-1.002829195334124,-0.86099569004885501,-1.6227253553921661,-0.074778618780337425,-0.0078136820111047011,0.84069806727363183,-0.34110695636817506,-0.46570876442136183,1.1461753396291299,-0.14332638070807915,-0.17427239689178969,2.0228423843568266,0.86926704984662084,0.30371326655562192,-0.091080928754086701,-0.083075118303766279,0.059440583526905039,-0.13904199984870519,0.40308891694499854,0.80996640934982944,0.53218361704765804,-0.60096208995564182,-0.75007133206680532,0.60696313187050799,0.14422753010464442,-0.50232042989576797,-1.4748297301290747,-0.06080687642113395,-1.7378386697321622,-0.055610856236807157,0.80491478647638548,0.13809722562504242,-1.5933059058291759,-1.4564114177674639,0.81435329096662856,1.5185189458922457,-0.51452312050924509,-0.19875295315605712,0.30058516085080567,0.27540744637516551,-0.071777598178695445,-0.49474296240839233,0.36015318776397953,0.16983944692698866,0.94232301006165575,0.64946985934137491,1.4533323381140828,0.39095088255471888,-0.56764752615469127,-1.3819620940648447,-0.23824886640757817,-1.0411141698934914,-1.6346873006539948,0.59951251741968847,0.92409361115322763,-0.2777128639736266,0.0036089757950331668,-2.2980946603912491,0.62028307124118121,0.87063030758234639,-1.5759979859718221,0.37632361115322643,0.5069840178691013,-0.30585062369621457,0.87021140216357307,0.63844322500649198,0.39844027352461109,0.0202800347933727,0.4658855458327647,1.2346648157852862,0.21488667464037509,-2.1844405435764402,0.79834834223691531,1.6447655658575804,0.13986253942829152,2.7865574032147906,0.74861824361328022,-0.98396782439551667,-0.88044423150751627,0.32469782576987749,0.76376502706176785,1.5031431092540413,-1.5492141548413985,0.49661274844078229,-3.0333712943521234,0.33023012146877107,1.5254473807073294,0.2397226734449785,-2.1923553371196611,-0.29026037219164863,1.9544797687786843,1.0249611583812535,-0.39494829881917443,0.32677193702558593,-0.089716100688606706,0.52300461470122439,0.64761266185161337,-1.3820697062145419,0.70154917135811112,0.057693979142507325,0.94946194461893985,0.40036671822616171,0.60383490835913656,-1.2162234972001784,-1.0685725998465674,0.72500504220940076,0.24032386454145235,-0.50486444024810118,1.0416547605510957,-0.31822735210244246,-2.37103242661229,0.7989857756762565,0.44487379111084085,0.85553087572672681,-1.9412904536680744,1.2316129911994165,-0.026126817902036914,0.71188302778200696,1.0083751863879107,-1.8493339263756201,-1.8034669297052255,2.4552026893949424,0.6606159445441484,-1.0250701519779679,-0.39579842469159821,-0.1899181644158468,0.13355648284505395,3.1296838014933375,-1.2803330024048742,-0.17031365697931863,0.8139275193423624,-0.83113523248347121,0.85099544820434136,-0.80109895984420298,0.48990985392392256,0.32369030325723308,-1.2262906458026666,-2.4403183645304662,-0.83143004235062967,-0.0088099426511650276,-0.45801568810811161,1.6085901363830397,-0.34560252910192296,1.0872220130583481,-1.5129066843537233,-0.51560132860243313,0.68986203890987452,0.47942968084989523,-1.3109061656699796,-0.78002521034030003,2.0858467336741868,-0.41167528015850452
-2.0872176372680422,-1.1923895117493888,0.8869911238613799,2.3898073933683186,-0.52944499048427973,0.51733269714737573,-1.0995525320314838,-1.7727649344927023,-0.0051220752949701865,0.32252088228742987,-0.88116452807165513,-1.6041444218333178,1.5980967466676537,0.93150690234570555,-1.3344810029282226,-0.18288527957061224,0.27901850013476764,0.75207716973156102,-0.69500048821786242,-0.15478524731454052,1.4325798563875833,0.85387826292374358,-1.0323763599728653,0.83062411858984964,-0.95470823575712593,-1.1656512205915159,-0.0045266138445647502,-0.86927323323781203,-0.51976136793737238,0.73853816374162284,2.0585853572863826,1.0107281577657363,-0.18172117067103227,0.015780740976374795,0.89636773008475168,1.3554298022727218,1.3693778236427512,0.47294382021581061,0.68602435258798833,0.21273479086399597,0.52425885709430831,-1.3044924134211524,-0.325449987852442,-1.2527020940346796,-0.46134581158623716,1.2580075622605644,-1.6252905645102944,-0.54744416143919894,1.2862763026309121,0.23014048409277327,-0.52049943277506017,-0.0088646463155150051,-1.3671916424155148,-0.64393078501635825,0.5062706121480246,-1.1770425225663375,1.1539057691969485,-0.7199720427391596,1.643781627598395,0.25348718682172272,0.69324563095272262,-0.24999337407313954,0.739747133106336,0.20612183497541622,0.1027662029833077,-0.1620628061555279,1.1271069257114206,-0.5165341331541603,-1.4365199809137834,0.31600991694552344,1.0739126053780566,0.84722746793900883,-0.025408831482086856,0.082019733336196679,-0.50099366224746655,0.12887658216148845,1.2568517155443717,1.958622764651339,0.20611255837622711,2.0462709583621557,0.81723165493285443,2.9258563514739064,-0.60981368376278577,-0.58345533959595008,1.0733902811122435,0.05545984661683754,0.10057060312658905,-1.576675393139563,0.29429326653357185,-0.22866200002574877,0.39662504549268585,-0.44423697214480495,-0.5791679189511576,-0.2035581958916538,-0.57301647221527219,-0.12533211399500221,1.8974337921505053,-1.6923504349836775,-0.78636445698072799,0.61188417440355891,-0.15151174349706897,-0.75462436187086257,0.18290094584366734,-0.93125935379915581,-1.86465304839124,1.2812352412854104,-2.8039169980826717,0.36329909147306882,0.47439367537117361,-0.58654764784924918,0.2193709231957682,0.43393916836794483,-0.55127824268797532,-0.23653204028692848,-0.36070964097767344,-0.56697368772806911,0.084026201546616733,-0.38654212453879006,-1.7696419978750582,0.63344859535799181,-1.9474262760048082,2.1950684398541838,-0.36455268303557647,-1.414523187384483,0.93187892547396356,-0.33891571887719019,-0.028077536860983521,-0.15712851731418134,-0.092247448357473436,0.2661504110684364,-0.025116318576791669,-1.2342628151170212,-0.40773875202360399,0.9666632172861076,-1.1130941340121274,-0.27268097973565208,0.97073273833304985,-0.253338566646995,0.98590314895528119,0.34071456157784008,0.013264321454145399,1.4961451997673709,-0.15919498072787328,-0.66375354477461013,-0.98876811635897333,1.0522851151299912,-1.8480024955710181,-0.56575700974446808,0.25783647019018324,-1.4906528202337788,0.51797258507670974,-0.70660118439791642,-0.27300353646566716,0.83094792411988039,-1.4054201309590877,0.86253021020274312,-0.81675881013731444,0.58445116603054359,0.59274438603890123,1.3301410748002043,-0.41143308763690634,-0.41459783410919537,0.9363546525508738,-0.95671122897603789,-1.904265995734288,0.15367701144313048,-0.5445809824620339,-0.97066591646098499,-0.32067803854408955,-1.5285443419481546,0.58851949016375094,-0.66297334683834674,-1.0645780202106241,0.34810635314020921,-1.0893637877587476,-1.1162456713531816,-0.15017164254768484,0.7128040669072554,-0.28962598620968744,-1.0733288590669121,1.6100890003626864,0.67477089072008389,-0.062201025627838469,0.94523274739195462,0.81743419996542577,0.43310954734124862,0.37545476491725249,-0.72198076467020755,-0.7933172239031776,-1.1841570572611673,1.0576772865328055,0.06750952840064979,2.0585551415588568,0.12277977663039806,-1.3761402862318555,-0.040224106824052509,0.39388376116825152,0.3783210783832251,0.7518254161452621,-0.59141517539448363,1.3914069675102121,-0.5220865557094615,-0.62482952000767555,-0.93372061842606735,1.4186393609226333,1.1876179935267703,1.525974708658512,-0.092424613863682115,-0.61462223708224761,0.56353604337367613,0.86392402195407947,1.0531416294758189,0.17593759470929843,-0.60971054906380073,0.12874508531601381,-1.2900095633315671,1.3654418566605397,-0.29762914177050548,-1.5735144523813807,-0.88266035895368089,1.3785214929609666,1.685481597168998,0.72563470093083715,-0.10934579255001012,-0.16862756062323625,-0.4210859720598305,-1.0007515568659155,0.88635634134730246,0.92736939561215803,1.0274787271523333,-0.37039022450212344,-1.2640114344441384,-1.3546947031032908,0.44501012856795114,0.099602528518801831,-1.2376654863236443,-0.14928652709784482,-0.62778722728874647,-1.6843405342266551,-1.1701644391582386,-0.87174443846893601,1.8944529714860263,-0.81190470407655424,-1.5445357745524528,-0.23651672835070503,-0.27197369915088415,-1.7910060645156261,-0.41313290075708642,0.89912669855217686,-0.36223589003155271,0.16976223338708768,0.53928023337084963,-0.059656332661703566,0.49069632055736379,0.47581163551954614,0.016013699136984739,0.1499203485970122,0.76956064625857989,0.23756469994925078,-0.45975850312374456,0.88448981815968164,-1.6885835785291996,1.8324581446738548,2.071371852258725,0.15994208851122335,0.77377409934108121,-0.21579993722132151,-0.7524120186634744,-0.74360903635827302,0.64225459094227055,0.033686968706255573,-1.4008226468099594,-1.862780504824751,1.0230645788265316,-0.96129711663919992,0.8828394992760491,-0.5192937366869762,0.018908445487810548,-0.6370770066330691,0.63817841968633693,-1.1128683262566248,1.853056949076795,-1.3608760823354076,0.79822226845374811,3.2879239803881468,0.76264983094827254,-0.013197382953431683,-1.1024887413380697,0.65374222068087318,0.25942329821784044,0.65196573223720145,0.010502410941398225,-1.3191702326122055,0.393483344620431,0.20132451951650723,0.74251430822504527,0.18259253339262946,0.30712549582854043,-0.42467768569682829,-0.91032519842565551,-1.6208546820059557,2.59337683261663,-0.42421048953992857,-0.23292591681526145,-0.36471185918061277,-2.0111150872056291,-0.045078349288100505,-0.8221152897024564,1.4251168134221976,2.0764707323439815,1.3741642061613299,-0.075076403084127802,-1.614732100248734,-1.3536729423575016,-0.72398198637914224,-0.6983259906382201,-1.1152501970945694,0.56988745849070155,-1.0353981224122024,-0.53966444883359155,0.077229436856924419,-0.25506996986775915,0.7666830740872107,-1.1701267644493936,0.25578527156491482,1.2008067854811399,-0.5732428968101666,0.40285085300626883,0.41261740282756498,0.23053667426629487,0.029585775562052375,-1.0391493665262233,1.8681194729227315,0.41245665623391836,1.3306343616889622,-0.62280815095975861,0.61144950878316484,-0.44324592308429422,-0.71721957113855483,-0.68733594185392533,0.70610522145850729,1.9048951885625376,-2.1538410308424485,-0.1671902879233238,-0.56701483553773213,1.0222557875763969,-0.91837404721667537,0.040080880078766472,0.46667958617669819,-0.52482252988071276,2.0723682077605745,0.16968939365115171,0.52601317688160509,-1.2524672952110889,1.6791226762908942,-1.888680779227385,1.8778975478155771,0.85502668045427199,0.57095435871693645,-1.50027035689497,0.009053951466390953,1.821449721610918,0.42701553797543912,-2.4975953109280367,-1.1060246006881145,-0.64309138825553913,-0.31318779780204142,0.49654489002173335,0.22206891289007263,-0.91255495370862927,-0.045690396973752725,-0.9124005915178286,-0.47762581542941462,1.4633525340842788,-0.58135848219215291,-1.0488978686946624,-0.10022581363018025,0.40611729576531042,-0.016738079870345809,-0.2961612257592447,-0.39353398673183515,0.81185752920089527,0.48420396609203115,1.3702885733461418,0.22312671060858494,2.2674701371499335,1.1629382091551521,1.1900835252017941,-1.9063170254978903,-1.6959298692905256,0.49678534117988377,-0.038552390923326477,1.2161889962287402,1.2112236454054754,1.6341883223985771,-0.65076225167189006,1.2596853065671643,-0.2979636314306735,-0.26839089747074374,0.33661193174866394,0.89123950994768553,0.35095118429872918,2.6396415177119419,0.066615052092658097,-1.8994668658582015,-0.33257301258293126,0.66250872868706634,0.67792810890102251,2.0371978471604386,0.3412039867092887,1.3012021128124076,0.049647383739936268,0.44427411021634483,0.83411744631786178,-0.62785341145143958,0.68796881692629397,0.51610838320121655,1.1681498056976256,1.0053862638909783,0.42967675641514763,0.2762615107828354,-0.081241294263453626,-0.37866567425700787,-0.9082092305484214,-0.65804344464252384,-0.97273876408251836,0.10964244649040623,-0.6129499540108353,1.7661788673460135,0.21676741115723472,-0.010041054383790399,-1.144222349034802,0.36566696789638653,0.015306846072238737,0.35572005822131936,-0.35860147190798958,-1.146256381183649,2.1228887925997975,0.46950398516919006,0.3192366651963609,-1.2584061697125259,-0.71931405668358128,0.92921224439727712,0.018117539362313646,-0.32618991811742254,-1.9281744989475282,-0.8691714906690905,0.34081007422819504,-0.14204015740672135,0.20158719217835452,-0.23861133602455156,-1.8547680122684886,0.59771560535923152,-1.4164259552196856,-0.67992402641699656,0.86488280569099329,1.408908166460165,0.6739697679607124,0.66364936702485655,1.0242329222089508,0.72556719789452917,-0.38163611404163622,0.6936958521873211,0.55654453282429062,-0.16088787603861934,0.15878931399418178,-0.17639294050923654,0.43541183976790582,0.20205040345156264,0.57047867260383078,0.80999878984018048,-0.088128591386132618,-0.78931499434632413,-0.63383357727833323,0.28847405655086544,-0.11783652246085641,-1.0473735456376396,1.2693510560917214,0.29789582901953027,1.6814403488750822,-0.37074915895929922,-0.67527715413674538,1.1362046575484659,0.49086551681274404,-0.45081268413619968,0.63081438437786619,-0.61168126879244733,-0.017845022511910186,-0.21477783589736582,2.018547810223279,1.0230991785989463,-2.2375502879565232,0.69373919980757448,0.66423858712046535,1.7319320402118104,1.8406877130549077,1.6669058713173823,0.42509021513630108,0.22564196233530925,0.15561518008305145
2.5682546668735844,0.63020742774008265,0.32984784899732617,0.75894188274220953,1.5588991562552967,-0.21058863019986235,-0.59709226158372286,0.97866619136456601,-0.0072898017484735091,1.0162488638861975,0.69533470483618942,-1.0794433204007337,0.1483792160191324,0.39626965652082086,0.99124091371060308,-0.54052202704798069,0.84328869679023821,-0.3216221904188904,0.47248192435695757,2.6571200430162523,1.9925613442602441,0.98688683818406275,-0.013928319900705382,0.73072286165762235,-1.9216809321081398,-1.002511134381656,0.75185180229631299,-0.20092739824262493,0.47895958840024344,-1.2809219407886645,-1.4720792240374003,1.6702198948157745,0.5923595728864377,-0.24537392391014504,2.0293674035274707,-0.13426828605876751,-0.70691379462478943,2.0145273561686285,0.30015742380582183,-1.2661334502308954,0.44254749681058048,0.6015607724577221,-0.20523359867792404,0.49358449759117029,0.28534869023992537,0.66333964427734071,-0.21315469141225898,-0.81913651205650173,1.7360781757533936,0.13938477224352833,-1.1952833617070298,0.96626648344264321,-0.29213872848423023,-2.1964869297115657,0.22931306461691459,-0.36162274341819117,-0.63971386676233188,0.72612261315982496,0.9891546368133306,-0.052967682945621444,1.4812583861985615,1.4921117931687751,0.61937924148865964,1.0626506594020193,-0.5385684043965101,-1.0856792405693183,-0.2669625609338131,-0.24468520228420101,0.095363558425514083,-0.87020632860840985,-0.74024277948357275,0.11725689111794969,0.72116003427724962,-0.37442110229597464,-1.6394937014939392,0.57652601362985612,-0.39669883775248405,1.1005367415099108,0.40636237227725375,-0.7408682140726971,-1.3033101843803423,0.48445214024272459,0.043218457728252883,0.69604732527965918,-0.79578271956869928,-0.02643304720321334,-0.62810323511245503,0.58314643841465941,-0.70760931944040739,-0.90161595607230993,-0.41410105870577357,-0.28279892006182378,0.91506762399342967,-0.92744107225482719,-1.6542895734587135,-1.4737803487862227,-0.90195456173826305,0.6971982786700972,0.33381821259911582,1.8296962105007775,-1.434491058809114,2.5796067015298521,1.3994638458445414,0.028045938050816864,-0.20734288525247688,0.5651602044273214,0.77275706421934331,-0.2003902567356988,0.37987605365084487,1.7593564751640478,-0.78084408421676688,-0.71209003082685551,0.70850005642974279,-2.0731265994930386,-1.0054981781092371,-1.5574865020076289,-0.163103224874831,0.64471372990423281,1.0230375384168895,-0.39817423190146034,-1.9726045325465729,0.74342651186505793,-0.7795297485733288,-0.2239173164923656,-0.42756198091579362,-1.6864589098358713,-0.1775433530218079,-0.31695170924828231,0.24769130961206154,0.23500498779296247,-1.6107762990991645,1.8925822149052103,-1.4806177508409382,-1.896985110726616,-0.4969130418776912,-0.44864174916891292,1.3587858769125454,1.0801412403634281,-0.22806013504229233,-0.64452273648262659,-0.24640951539509451,0.31860246191279656,0.88308121089100644,1.1538692967404449,-0.055418689738131945,-1.4488863305372803,0.52010695166205678,0.89044009822052461,-0.74220634970272314,-0.87595900713475172,0.17626605795335371,-2.1907840327286348,-1.2589082365906241,0.30836969832343192,-1.1911110357020105,-0.30203128383133887,0.036406979789321919,-0.43899376103344234,1.4452536468601076,0.1170822352712414,0.13459287547310633,0.54108838982923957,-2.0541515751246839,-0.11668655829166351,0.19464442037536392,-1.9544346411168245,-0.97523102099283243,1.2748642886022765,-0.29956252062624589,1.4234013067685019,0.43866887552176603,0.83475304658566929,-0.27975640471960633,-0.66486291556210331,-0.44499402381435305,2.151167014738864,0.47247617348935644,-0.1994127346292725,0.16182462417158375,-0.99749292212491802,-0.42776572824463166,-0.017778061906947844,-1.7781642428725686,1.1481187620337774,1.7088875344217169,-0.56965174075386082,-0.41926381190409995,0.36534534798171037,0.26889663362812072,0.35031639077437687,-0.66235670049588502,0.18245067224164641,-0.55908809047130037,-0.31343816097865751,0.88996510632446524,-0.22611129601078361,-2.0691567061474196,-1.3104326706314495,1.8710813263989778,1.0162044903761658,1.9849791975826387,0.021077553830592212,-0.10832457060780376,-0.02694519400645658,-0.50799204431620038,-1.4870714699148544,0.22770070511784057,1.503138030809291,0.28642315110411631,0.46225560617594025,1.1301464560942038,0.74206224990275238,-0.38842183031025529,0.57409994261397901,1.466967074250527,-0.19419956423772927,-0.24095901302736844,-1.1174846905489115,0.028614069139319614,-1.149895531964362,0.86522403057601949,-0.38334926173150113,-1.2568421501246996,-0.64635753298237852,-0.98179957095967851,1.6336668289161047,1.1037300856953829,0.23612963156526576,-0.56973599765547089,-0.81689448060240233,-0.080340193200295798,1.6601639973201143,-0.059112032848328465,-0.39296184393347494,-0.59103991349858542,0.026797619331487894,-0.2765723213739163,-0.27561896383778867,-0.54300066821575721,-1.7995271315349985,-0.047334228402478258,0.36974008138597197,-0.43375447660639765,1.0917475187438899,1.1522391130859044,-0.13286407670606071,-0.31718573740625899,0.31373230463594032,0.8030608479534288,-0.89942421691148233,0.77402794842160538,-2.4904945837646082,-1.5310694668588096,0.046463005251046782,0.24620321825048386,-0.38179739584857769,0.35081718197492345,0.062716072449795393,-2.576849873473618,1.3625086253935137,-0.35138609565597961,-1.3736525935528745,0.72468863372926873,0.42939805952591165,-0.44383166762213205,-0.74841348556622511,0.35771480311730941,-0.91630870228913519,1.7496695147666588,-0.028142411340579414,1.3458370173463765,-2.6379191382928333,0.45977845321706834,1.0220371412458038,0.14492277249232241,0.1988763087617953,-0.4535325358815171,1.4959692490345879,-1.7007763988568201,-1.7249333869972481,-1.1764891870217784,-0.062113528430020007,0.25147377027729423,-1.660813053939004,0.38920263767762864,0.77096860145824775,-1.2173683335538557,-0.025666153849928524,0.40760091277553551,0.29655337679674115,-0.47414677154437967,0.34519439432125093,0.71468122112686183,-0.7663466192931917,0.35434315274882006,-0.51013997092491015,0.10613998356488513,-0.31914391811342668,1.5668674091698911,-0.9287454783284611,-0.44827591660265242,0.3347230390899385,0.15403039446426967,0.27103557546680024,-0.64265576013967673,1.1093126364401964,0.81871750814587441,1.4792701668042472,-1.3392772015290908,0.48754368536852888,1.3559818719019832,-0.58212758704003864,-1.3343288443053749,-1.8201670837410795,-0.21657133184854649,1.5744873023980965,-0.52170851178441913,-0.86543962849751166,0.34783264527553065,0.16169389659776862,-0.5383541718777114,0.4698801057269526,-1.3446424546070452,1.1772526750816721,0.33856612664959623,-1.0950963860008225,-0.95270437807081521,0.70118864306338979,0.30491031316086575,0.41431231162374582,-0.2283818086678511,2.0886103495037971,1.0088232186345654,-0.4854120563695547,0.60762649113018063,-1.236543228939982,0.078387764321299694,0.98670867302618082,-1.5677015422633229,-1.1519861708930448,0.77515562884809741,0.61319294489621479,-0.17606272464207801,0.54321408356509404,0.7073638416442094,0.065839434032893163,-1.5068305858718873,1.0970458049140568,-0.20731697516585204,-2.347611756364917,-1.3029346876098598,1.7695625167434768,1.8715255083628279,-0.59199479662948107,0.64389300033602792,0.58908451046888055,-0.029235214271264395,0.6662149053752674,1.0030021788303354,0.46820413836416325,0.68739258276965098,-0.55247796218882006,0.090629915904622244,-1.4957460583015509,-0.70953301161140003,-2.1081688507518481,0.74267204699492573,-1.3187499846224118,0.52546635921629181,-0.22763585249896573,-0.44485474473310893,0.70332697513734677,-0.31541227828195512,0.33652416792031248,0.34267049142197264,1.9604807214761408,-0.077060598356349028,1.9322494182682695,-2.8141498371995985,-1.3064502641140614,0.77354171315335218,0.54406906209110217,0.1213632962846633,1.0388945305478676,-0.19129074045890382,-0.22783603341075159,0.28281195906157036,1.7972092880539912,-0.023811801608426938,-0.85903478597449889,-0.80270127989521989,-0.39530985829219067,0.0089031025999179118,-0.39479506895388666,0.1159121421914126,-0.1979311623164256,-0.2182845959193925,-1.2381304047799113,0.52339626537068107,1.8555386564005614,1.6321268642068114,0.36295587793496104,-0.0093601089601266368,0.62688907885455136,-0.87935238623401701,2.0408925235294348,0.35999189284150723,0.58251128576905242,0.31486242977665801,0.57949089373110585,-1.4782094238622383,0.6564480511425701,0.99616731409163839,2.5028419631656473,-0.52337773648781782,-0.54737676872410468,-0.35576811589049956,-1.5288047116977959,1.9214722596677365,0.86408038977712898,1.5219850266599655,-0.97526455640378595,-1.1860125634978795,0.20909008643844046,-1.1934673781197411,0.077118727687620542,-1.3579738772113155,-0.54822447995761125,-0.55527947385194643,0.79499219352522099,-1.13324494567114,-1.3251561525893967,-0.14083528948618587,-0.59455137233742106,1.4566992046322458,-0.37498907620631816,-1.9428422765386786,-1.2585934362377145,-1.166309095066121,-0.078721265953810446,0.58724307037541656,0.22995247117719597,-2.0421327937828262,-1.0123412516736594,-0.66411349897464977,-0.50546382009834645,-1.726050912253223,0.77047365440737758,-0.45442394274823433,-0.82061208805284114,-1.9394048405629227,-0.21466081973449949,2.0575048577113542,-0.776825468739618,-0.67631728546284575,0.70100905922027523,-1.0922014597950416,-1.6857323155808734,-0.0016658905192479393,-0.69143418919997568,1.0057648470734981,0.48990004699593287,-0.089705517066687265,-0.98221292488506473,-1.1248756331124221,-1.0398437582887341,0.81144746840507254,0.56179762187208793,1.2110695728637764,1.1729135062588159,-0.36863562214553364,0.75353047653956862,-0.57239366785997048,1.6585028505300015,1.1947678802863928,-0.32457863997189917,0.13218069808184041,0.17873228597092353,-0.081732830369406914,-0.49364172577487486,-0.91279892547060326,0.0065086607595897707,-0.12235843296616902,1.6434261306970899,-1.2543477936785445,0.51045804129142092,-0.61178469300219163,0.038201078478315102,-0.12992984255609918,-0.83167448598341553,0.68977565773704641,-0.57350134707808009,-0.35849437022833835,1.2519827873509035,1.195028556440807,-1.1353363001712022,1.0456621119111413,-1.6131956986709155,-0.59742441443432837,-2.0640393089667568
-0.80403658083598772,-1.0357854654681651,-0.61594171647732299,0.60917693759982117,-0.13239882940416009,-1.1202186188944063,-0.45853004545514431,-0.18583727533331007,-0.74839300100405137,-0.57925946826642338,-1.1968682255300853,-0.26540187984808994,-0.43629778231968913,0.54330067974756358,-0.21792959222508601,0.51649801789910754,0.15203535300895749,0.77156929878579084,-0.64552549977634244,1.3437680528009743,-1.8022880762505957,0.83218339140742292,1.4969513217346786,-0.30064571107569271,-0.5619748418749092,-1.3545553062856948,0.041711849295006008,0.57864730259215269,1.1432431991763177,0.46690788455349042,-0.33771645436335851,0.77144956384736851,-0.2602500939618268,1.576439025577058,-0.70793870375878609,7.8578214391538016e-05,0.47861995353393871,-1.3244878518992069,-2.4740707949307317,-0.13296862521312741,1.1156167263318852,1.9766324332788847,-0.68293623292540606,-0.40825224109086872,0.15095822486555888,-0.37785832476881442,-0.50132333207186408,-0.54940541209586824,1.3936708363513728,-0.37988954749065662,-0.19550937271539442,-1.3559706707564358,-0.66660639658230136,0.90590275252157382,-0.048040300377255096,1.3128148419550723,0.90283268109879711,-0.88320119230202143,-0.083427644135175019,0.99286523573866592,-0.72465545150866451,-2.6110174783274185,-0.49991225935924133,1.2638879117218478,-0.07291394367208584,-0.64703017636012394,0.44814444232144807,2.3157560078822881,1.0411013280048049,0.38279744314833691,0.2992169056443949,-1.6951968683922463,0.16464178083603895,0.13589394859872439,-1.2545688957590682,-0.047807900676365846,0.80255095161764445,1.1547279464284972,-0.81091299250887383,-0.47351236270655089,-1.2235384157974825,0.43492077298794357,-0.63708249808018713,0.88527566297253113,-1.3586223166902682,0.56541865649088352,-1.3476296478558221,0.82255453811671453,-0.97299590934228231,-1.9016158767007294,1.5068085212910307,-0.7211399980811376,1.4666715124316665,0.51748777832496051,-0.66934056656819141,0.82562116998779689,1.2044285432273929,0.035926761981600261,-0.40182628138484122,-0.36421312252675281,1.3230388477328276,-0.3106728138808017,1.0612102870237106,1.6234878860258322,-2.1419450230933164,-1.291061904953559,-0.73970906170000594,-0.38161738081721769,-1.5979871458310009,-0.71931170930144328,-1.2456562867804706,0.31020175287538765,0.28280625838650242,1.4279383939135208,-0.47789185838505954,0.95739539910227178,-0.54831670118872944,-1.7617917378347014,-1.1741033374580028,-0.71621587781034901,-0.4050125209899515,-1.3079150731598816,-1.1381292092152786,-0.10220862242943259,-0.59520482153716281,0.10447144042901811,-0.3547629213563025,-0.2178315020470756,-0.82150818454572438,0.10361486698074759,-0.0049619813148923716,-0.99231542883648538,-0.023558378453542157,-0.63781639900028619,1.3388098488071702,-0.51323342099367986,0.1666388367686,0.086342207074088267,-0.075187600904056864,0.96419361037817364,-0.22307089667160265,0.52198991613507628,1.8668700175773032,1.9384567423284407,-0.61179801000536038,1.1379773423062445,1.1650714564631139,0.37029575851622437,-1.3871685273107999,-0.48705943978159705,0.94917678000218197,-1.7191916034635775,-0.7088864070604084,0.7041425257420193,-0.18708373004385162,1.2275586036454031,0.61032361181478523,1.3996695184175341,-1.1527063052214068,0.46815013770298985,0.69027984707575241,0.73059441696307581,0.38804460442016725,2.0262717735562736,-0.77870637812576049,-0.47118448495303955,0.093157015303981336,-0.040630421890351591,-0.3674864323021278,0.54460936464501719,-1.4712767365748933,-0.89235820782297426,1.0012324791202589,0.81330256962189273,0.28564709651893838,0.15844184143563203,-0.43457038468685627,0.76588830295125165,-1.5722097784543203,0.37385433793257422,0.0070931840648411643,1.3757202935397332,-0.48205994345536912,1.0508741811685272,-0.51921005075251303,-0.11106346783072577,-0.24252544988420555,0.25025747171067542,1.1277109256102085,1.1580645593133554,-0.3547762991806156,0.039747632902816271,-0.15079826457523648,-1.6629151815067829,-2.8408308258494972,0.35693437213069595,0.16535569945892642,-0.39886711754870702,-0.88117260942592868,-0.26770694082328594,0.29010093070668097,1.8789329262520238,-0.2513866813523476,-1.0323304725833804,1.5696709768764863,0.73675632405955005,1.6009333204794582,-0.86379907001422307,-0.80347309534531641,-0.49894580237938208,-1.7461504634425391,0.013158261979010134,0.57725524208139167,0.14384796365333447,1.0154886732018218,1.9642415040321575,1.0719075059157179,-0.10458892199933081,-0.6328224377439603,-0.31450727564592329,0.29809965093785745,-1.1215485134413155,-2.1005704728858605,-0.83958637530880609,0.81563518913726429,1.0489430575344789,-1.7871687627828281,-1.3945822467396742,0.95426984036241269,-0.72597279670813908,2.2297373134486569,0.45581611727961474,-0.47453418797798169,1.8955582526007926,0.44844385002360249,0.32815289798644964,-0.65355776144641298,0.95802448644754856,0.75132892207646551,-0.65338273601098451,-1.5606789867496891,1.1980675168348682,-0.082959022344167355,-0.043366137746831825,-0.75843732328709668,-1.6988056539418712,1.6033318980343059,0.55080205489378986,0.26790994932224088,-0.96925167245181776,-0.88743124461977496,0.21704959392602927,-1.0622719768481492,0.55627661113155857,-0.41874826017001898,0.4160565470655857,-0.94639695349908948,0.48287815937672846,-0.41477005626311758,-0.10194836479917753,0.61975634070399677,-0.9651655894659511,-1.0601251295236835,0.55995740948134742,1.2943772222381051,0.65706568993596903,0.30148191220146764,0.80285578631026278,0.7434237676487192,-0.041063516057791467,0.78475350349461859,-0.17160858447748487,-0.076778563307013853,-0.9551100355454486,-0.5066030008103608,-1.1110140733943035,-1.1091661852477175,-0.78208895245900534,0.63005290039310635,-0.24854209707442917,-0.71721839696532397,0.89448696159376595,0.094714940620943572,-1.154287456179367,-1.2375702659262648,-0.89059013253341768,-0.89571050264063712,-1.0258528267019149,0.39625195062693347,-1.0230143917373204,-0.88866415930581322,-0.074631761420156234,-0.021621485914788664,0.21599981742495669,0.35783512916810906,0.67121235422460512,-0.44680623037081857,0.057079445773972448,-0.59483838279743739,1.0927219383294386,-0.030549850706803144,0.86764324933171255,1.5264788031064398,-1.1005818833099286,-0.5245974713470295,-0.035007705188535604,0.52196587029244901,-0.28583494406557863,-0.59286018886005531,-0.5534602203288691,0.37553256842145316,-0.96385428207588286,0.38122565273457998,0.04505719137128264,0.077523618048735574,0.77447729031071999,0.49148910946501156,-0.50273523214089388,-0.12713253939677219,0.34607474337566352,-0.97277329357782605,-1.1298689656832259,1.0557731910511319,-0.30941130484029961,-0.29183651093178148,-0.95384342860098048,1.1482143730512675,-0.62579394712777658,0.21427758820890133,-1.3549256070112261,0.46171393241917102,-0.90937985711897285,1.6949299933167061,0.60426723232176904,0.46891235902594813,0.60587718402539847,1.4897303954815264,0.21767366545814801,2.256477076285357,1.4453519990829942,0.41403302195783609,2.8132414102605572,0.13972268765710977,0.47833204924955713,-1.1400427275725757,-0.48232523268770816,-1.0031944879272878,-1.1645495385693574,-3.0314132934015645,0.29459955719890474,0.64400616960157075,-0.18623031101848972,-1.0492542114273877,-1.5358635583409954,-0.31653324701022578,0.64722335505866246,-1.9558335015416097,-0.057583384845316866,1.0977045884071608,-0.69471028727568196,-0.66166537564715533,1.0487622636051499,2.5902366144321767,-0.284486172163814,-0.11353721525310093,-0.87753245362938037,0.22573988802579134,-0.00080533588788559427,0.48029908121411408,-1.2017638913912128,0.43793309466688979,-1.1072772874733419,0.9420455196518317,0.42016074313439544,1.090720095395721,0.86756336211980845,0.55495262245411336,1.5682284125613326,0.73353147571900246,0.1235560935068148,2.2153150018605179,1.4634046567421373,-0.11099410971318435,-0.85937805729877614,-1.7390125009283981,0.050036933502286558,0.86913874741898556,1.0684230343066679,-0.40166311259499993,1.5844062712761988,0.82929845815545589,1.5988767465197369,-1.0677906418781502,-0.41200217737633932,1.2310324199480442,-0.30677910293143407,-0.29745369313241005,0.01445111529056585,-0.89833636013280493,0.66427943346939777,0.30171075744609327,0.064723029307390337,-1.8443379682255605,0.80799091467966011,-2.6191810751033864,-0.14696754896389855,-0.67619910461399979,0.054199860218962399,1.5926444842019507,1.3641917828300694,-0.8424503664982671,-0.86837502629597596,-1.0292481659191834,0.39688336817919484,-0.057278653024384438,-0.31889296447843307,1.8492465398219182,0.48578128072767507,-2.0827756959464772,0.13139784167641308,-1.0869715264010804,-1.6046038637109945,-1.038380393389704,-0.32087613746413862,-0.71303454612669548,1.2316962131544305,0.45393928505705233,3.4726906233880164,-0.79212319911175444,0.38575591180212021,1.0716498122084752,-1.2482563944646266,-1.0984726491303323,-0.3972436090071304,-0.22426451830677677,-0.28614568156896186,-0.280359991655941,1.1103138420755259,-0.08372658946401175,-0.23446901429309824,2.2986892401763819,-0.8224418610647507,0.59529358739859417,0.83603227939452929,-0.41648827413399592,0.59953490345712701,0.19365639184258485,-0.87130780999882107,-0.73187528518788691,-1.0073739603529102,-1.5441857134577726,-0.69900277059430993,1.3281526168579485,-0.98930885394681434,-0.19435585107684106,1.2811802634305691,0.16872459819297952,0.92466881470180284,-0.0035340678528873394,-1.3357093446683377,-0.248567312949732,-0.76565274277650097,-0.57236778531393362,-0.79318973277694349,0.66518974844548795,-1.183788337649853,-0.84693601977259081,-0.10435548161701362,-0.3100367786599274,-0.10944443604329906,0.49056762811761401,-1.2263887858162712,-0.014105287163881394,0.94541989856645048,-1.4210014934418864,-1.143756936916646,0.25079027746236399,-0.33578686682977699,-0.93472676381122077,0.86560149061610792,-1.0540470207512147,-0.59327251637892309,-0.56344957952180053,1.0643470309941085,-0.24906698520019108,0.35147129854903875,-0.11931425201375903,0.27435541605296371,1.2141018810956916,-0.65156973796871198,-0.94526595806594926,0.6121202079490895,0.41281933014252015,1.4107513061052828,-0.89869390056676624,-0.94031591498471323,0.33759221807288309,0.31908594914355187,0.37564819306100394,0.10146389291456531
0.58631515731106654,-1.5782864679609061,-0.569515063685061,-0.14892775788290316,1.0414383200307495,0.84643260506142903,1.2650006822181257,0.38559912119502154,-0.67059857326512484,0.71566132630370227,-1.6354387423457606,0.68517695992307726,0.87803746863906962,0.88814696794701486,0.55705169300328305,1.5746153214205298,-0.48346802938338812,0.24668710680410835,-0.36241396850807761,-0.071338905682840792,1.0374386096645689,0.23928964964631716,-0.21573465656449076,0.93571408980104642,0.34245520063508389,0.90327286966324405,-1.3997477297037366,0.27593894472204944,0.87127083521653181,1.4368799980431946,0.2932599369903936,0.85309654318918815,0.76845086356125214,-1.6368025642236721,-0.4778810608992301,0.35802219112944145,-0.2176302266498121,-0.17410992819195209,-0.5135469116581538,0.62111971101604868,-0.49852373227689889,0.57588288680308075,-0.65122527925225704,0.2880696325661124,-1.8115758434500693,-1.7628131678061751,0.042598033206947813,-1.2843400845086868,-0.85690176562675024,0.45326502092043941,-0.19552025163021194,0.45990068270859613,-0.38954468254052871,1.5608927433384319,-0.71767072514988817,-0.7810228624404898,-0.206958615871146,0.51073910812217138,-1.4941739173773247,0.53463845409680166,-1.1709412097881891,-0.1037792695482645,0.29966918934954445,0.73224619163568838,0.80327886607146382,1.3284269884721438,1.5391109317804468,0.21148593413814723,0.95073894331835496,-0.75743642396945021,0.71798094563908121,-0.47716478195688894,0.74798189997277553,0.043265903571005529,1.4813506909405068,-0.37246900539388961,-0.20847145857999325,0.68225617388094262,0.7578194364754488,-1.6870106370849229,0.52161868628191088,-0.4263170110719694,-0.10060837637230963,0.23146044128083409,-0.72571850214860367,-0.71537872542392333,-1.0359932875611597,-0.32089483886126163,0.29168646243006568,-0.18777374124693963,1.1480062155828719,-0.089675407268023893,0.50602978538049026,-0.92647453490833664,-0.29646790242052734,-0.0458576748924404,-0.60360371580479266,-1.3070033264812115,0.45327545193464996,-0.20450847813236944,-0.87235383693314406,0.70108470505798859,0.80153460272592469,1.6290422419243229,-0.45104022636684621,0.15349797508019494,-0.36899324942528161,-0.27928424542545643,2.0253938597845464,0.44417826600236165,-1.143853654268375,-0.89581138435826357,0.29756489978343947,0.28569802457133986,0.96932589743292996,-0.067660911721231121,0.18557782203506745,1.0575038259751299,-0.73498307890925851,-0.3336924961570103,-0.39706738850015355,0.044553071826277157,0.42379007643050581,0.58779611349408079,-0.37989613115231685,0.11679322700378128,0.32983881491571637,-1.3027919302663002,0.38628166112922663,1.7347475960093783,1.3298567512797477,1.8989175990190226,0.5502873128807616,0.041464907700426872,-1.6071163666124471,-0.2525704606424421,1.1573379642330921,-1.0535730147126947,-1.2169151513086898,-0.69529412835376736,0.10519454655539386,1.1590407573236607,1.0479642965060763,0.49989778915326527,-0.86476390332367348,1.129779112560455,-1.4483861378935141,-1.772294395872662,-0.19701934777302618,-0.97444856438994776,-0.29725110760192053,-0.75118897518911398,-2.7416795017962374,-0.93983859112504298,-1.6116568064260355,-1.2540056810733904,-0.52306710713925841,-0.78402696661469251,-0.26770575028437088,1.931361482341607,-0.31999240901135051,-0.49664864688433952,-0.65860248343654149,0.35091110167803025,0.62144742406400399,1.5553314844825463,0.60491201393271765,-1.8364233682572391,-0.015185921232240581,0.16766407760259258,-0.83078390482102837,0.6484711240907437,0.36069969900047738,-0.3216554484539027,0.6444014396104738,-0.2464237345398563,-0.64888754553871197,1.0674319963062602,0.41105720860784556,-0.93155954627225179,-0.40366596266614529,-0.1014248794465982,0.37402337342449282,-0.95373838186128557,0.26730363685691927,0.69319335511490643,-1.5042102995653683,0.55676306665182462,-0.72788838121122668,-0.40059884625464809,1.2729851933654079,-2.1931501342006703,0.18065462918899808,-0.94708871511663184,-0.77565839446946172,0.18068437976078222,0.31990116566540394,-0.8282441204345905,0.67006441994312127,1.7965213212179405,1.2413221790148217,-0.11906699972827044,-1.5044584151906391,-0.030908576963661793,0.88652250438952762,-0.10539313769466416,0.85326022888890907,0.095092938007101155,1.1890888381839997,-0.34869106287174378,0.86847688403431678,0.73918128706180075,0.91662255179916263,-0.56881560768203721,-0.83521597950026638,1.0571016288276094,0.4341660081987524,-0.62808914939358862,1.7923186951803542,-0.88796091597652926,0.1325065096931643,-0.99608700446212028,0.86846372895551804,-0.92548975946667911,0.07309361340604463,-1.096311592425425,0.49610697650492425,1.2124777900178669,-0.75870362722117179,0.34171826235073949,-1.0615401693910516,0.69581818286825625,-0.31273243482619006,1.4701499010135328,1.4476834261555649,-0.88773410868291092,-0.17355805675836003,-1.3249753702981972,1.0317951548902626,-0.032777021294036951,-0.18063701577097224,-1.5554715039349418,-0.20842947849750057,-0.90758388237848231,-0.87447711038742637,-1.1943058222401439,2.1572225641004219,0.34122713599204707,-1.5834814421888999,-0.71922909155301595,0.77122377706709877,-0.38062384071521671,0.17617912646981204,-0.44936407222177976,-0.3870050716671572,-0.42660117323168828,-0.56103679155881248,-0.047464498922722129,1.3551595682744941,0.39430971188123909,-1.5678188900281724,-0.28249834327828627,-1.444543541558204,-0.59912522518849542,0.9397829314548517,-0.16271585692629639,-0.60295650344127916,-0.01541704118018176,-0.65009584317298241,-0.22581116621242797,-0.74757894358731869,-0.26229756827351863,-0.604952715839569,0.59543457236924036,0.38609130423667432,0.28166000862771895,-0.39214103649214577,0.17028106238692764,-1.2088270794961506,-0.85019131302941209,-0.84051928081791816,-0.37486153318775606,-0.48509236027047287,2.8997269550980063,-1.2783513640095676,0.61256261221586805,-0.17913662946726,-0.78456041311067848,-1.7403216350808253,-0.12209419044709335,-1.395690512163221,1.8111085824912216,-0.0058215175918419218,-0.52693341840085428,-0.57405285710028919,0.016174201252479339,1.6584493059544754,0.33359311426165389,-0.002070950747705544,0.93563649943831706,0.82410641039482546,-1.6179374276219041,-0.013115271812015796,0.147590531373721,-1.7395641959738697,-0.22765722537067201,0.28648147263540674,-0.69948950774161789,-0.22156678677612635,-0.18604828288294331,-2.0383777077509468,1.0772075475181526,-0.88134997490438172,1.8086725385830575,0.51173725291752703,-0.466418382125937,-0.023834180202570977,0.95079282305471546,0.024622399778894469,-1.1693381831294121,0.74188887364342393,-1.0587009995607757,1.7003899706886638,0.62548694752353917,-1.2392785809087046,0.2036863890001524,1.3642699060062586,-1.3677232204443404,-2.1614764574653824,2.4904713596250061,0.64611983802220263,1.2548465622896716,0.38614682772764652,-0.79638775728842315,-0.076347936162703633,-0.59252027162232901,-0.12488587594994946,-1.0928210721429241,2.3271127553175734,-0.58152355665425415,-1.2579841366279676,-0.0054770692790858605,0.37380177686835386,0.61865561898825383,0.2770653050977594,-3.1040895172571448,-0.90533552955261609,-1.197257529057929,0.22210088889256449,1.6474218277560617,-0.18649239109721408,-0.21895986859959335,0.87297177032436601,-0.86838854985437319,-0.9336891846958626,-1.6734639300500207,-0.62672735734009577,0.28538406110325243,-1.3166388897703769,0.73854597478873063,-0.14937266672082836,-0.28513412749134809,-0.53194672322260816,0.41456351508749595,-0.75966360652892884,-0.90972512856762167,0.3203251099487297,0.83380824234801376,0.65272105367504829,0.48646704515265882,-2.5541991112329079,1.5421646089805781,-0.51006334032683243,-0.12716381008584082,0.78710145715876145,0.51353221965068141,0.26058128030996081,0.20800421114250267,-0.30101963909773982,-0.17318259580564552,1.1541594215104807,0.66156109607439184,0.18028509535892731,-0.64172637261459076,-2.2258962591876092,1.3803309605914449,-1.6809972233970285,1.1249596101442536,1.6542920050421566,0.11233308040936725,-2.4081951591532853,-1.0183803394909712,0.37470260220726603,0.42973635097555685,0.26751133723394149,-1.9857241082983899,0.68952208195261944,-0.73204630170196361,1.9880363530431882,0.61324063960436814,0.42107792641612485,0.41180980095666808,-1.7832300614254599,0.42768822500381015,-0.40618602110287105,-0.22697397020157645,0.22469309217329775,-0.9989881341445912,1.2463524981309959,1.03543062904993,-0.71315453927839767,1.6181235360074209,-1.2733109990464384,-0.60851640105580374,1.3246247511063325,-0.18632505761175383,-0.6066425677836067,0.48469699241988246,0.64242924462156914,0.065259912416908969,-0.96391097765332756,-0.70750150509437904,2.4267062229535403,-0.37405751466329323,-0.67489613584019914,0.84451238693769515,0.83826780668325518,1.8166811708274258,-0.22910390646680664,-0.52073832024053934,0.364421997441087,-1.4508707156269369,0.20814084005623623,-0.36221809090896762,1.0722719579822944,-0.033585094862484552,0.30364469879212669,-0.52251649398875133,0.74664701827494118,-0.50519330958118702,1.318202051951725,0.63919446253714796,-0.64295052481567927,-0.050563263693459162,-0.1323144850189695,0.41711610096380081,-1.898793362189608,1.291141640683678,1.8539126869161464,0.40731980997197437,1.1746906364004088,2.2612934514788678,0.70998395793226765,-1.229959670270921,0.78226648678351784,-0.16924851042325792,-0.99216059377125143,-1.423579802163133,1.7386988165936339,-0.40637666777368059,-0.49701674244556926,-0.14988779254956361,-1.643198345550118,-1.5950257579723124,-0.11954945264733621,-0.74240097488877166,-1.6148377778060312,0.62429333784478924,-0.68244222391396303,-1.2386681809888513,-2.1220774058497547,-1.1329368662757477,0.36146676784630355,-0.8557221631530576,-0.71765001291559249,0.27826886807623386,-0.91426858895923391,1.6853385197691013,-0.80534220264989509,1.2434465936769972,-1.1082301508627674,-0.34122199719913177,-1.4787638025878707,-0.15961380379760853,1.8401585718662672,-0.0081017477189625035,-0.50157259093497475,-0.34700976475283279,-0.70679893499361468,-0.89586857598507241,1.8442214153924361,0.79494670135637358,-0.35662614457084096,3.2122245553165705,-0.008752421358460891,-0.72093161440174791,-0.21589303165230986,0.065196148185321184,0.72213223893292267,-1.152670964931914
-1.3171137208739165,0.43426720110075928,0.9900816181580101,1.8976149229460961,-0.3433272165445907,0.34290249336442258,-0.17893931173213318,-0.67494085754981747,0.37565708041173024,-0.66691741258472526,-0.6364301522242849,0.48535693371495031,0.57941672552517332,0.27841828542437408,-0.9552795644990093,1.1334329569985,-0.96466978004153403,0.86347309486522905,-1.2907185742612817,-1.5608311978179659,0.55623284736898759,-0.26139403822047969,0.57954280289073867,-1.8621523366703827,0.75804384623223398,-1.3249293068464745,0.27164076139074356,0.90372899395985884,-0.60052993748933847,-0.12206172230724362,0.37329666849681814,-0.26396756796735904,0.61767690961394361,0.73522314704485103,0.57398211993544013,-0.041486739752501528,1.1589317288758099,-0.11526887354168953,1.3910038289713726,0.69274715522263841,-0.83467324590606662,-0.093955690671666009,0.87194090273580471,-0.47885526742891038,-1.4832872731372813,-0.35577887886532483,0.27634635903999122,0.49673322345069487,0.9294163423008136,0.10163111959454717,-1.2935090393407043,0.55821273756804823,-0.38778698865478278,0.72876030641805944,-1.4282720331346586,-0.14725590165522326,-0.60223406638221377,1.9720001249278698,-0.85467333692088743,-1.0688448388590748,0.35205765741801015,-0.45969846023742039,0.70727586374482776,-1.2603860047543682,0.43571412013070959,0.91543077095418079,0.4347923111368629,0.13513855794636498,0.35049123386147252,-2.9827084183400197,-0.097279957986516868,1.1933617234395146,-2.2757078292026347,1.1828097332456047,0.69712538528057999,-0.63054792694137829,-1.1927780358459157,1.1149968065821627,-0.37834042000755236,0.61169231433704607,-0.50421981647490643,-0.69627401406942169,-0.89882050104500522,-0.066518203179359039,-1.9914647289591647,0.77551037194165351,-0.34662990159873847,-0.29804881989117504,0.70176739677930466,0.84841837614163207,0.15546606467476792,-0.223560254988978,0.17220866084910844,0.098396572843578028,-0.29969962306604953,-1.1275115417572588,0.89550102643879848,0.76522898522555849,-0.85268551377340929,0.50941746351851958,-1.7090933481391406,-0.10107764028753889,0.59239412058831853,0.41553053212453378,-0.075039520912081409,-0.27548812387702132,-0.45302668825416753,1.1926910383618008,1.8514178934316032,-0.23288269392564004,-0.95260014292095829,-0.82436923550144015,0.73641144396037839,0.42094706909336793,0.03233099891383822,-0.071144207937552773,0.40487132724008001,-2.355101503011527,-1.3043221505165676,-1.0343623556843273,-0.093570115237643539,0.25027001587472714,-1.0101634949212104,-0.23737647717173543,-0.29348959635188071,-0.30454532340867657,0.37459291673779471,1.6445840510412486,-1.0456792696584958,-1.1968337178837625,-0.53513217981290284,0.329435777924313,0.057291250814283344,1.0687557148301694,1.913111544977858,0.88681464834849888,-0.36926830881822564,-1.6414262045435863,0.73432522053497939,-0.55722845990141423,0.18925383820933259,0.6782126208098157,0.58326162239156143,0.44948015763976967,-0.96199002891052399,0.42686215392008064,0.20877141061966187,-0.3311599484870878,-0.3292673741713959,-0.79587814939096801,0.89893674842374849,-0.18365663506318089,2.2045452252903335,1.4046707961908853,-0.026479368534657804,1.0030353386608148,-0.49275066875822743,0.43874159644460275,1.6371891408283787,0.89795318816236691,-1.9234358444705548,-0.28360358336520025,-0.17455209124849136,-0.1360609040354431,-0.010057362025391909,0.21967259022789873,-1.7470181262753881,1.1351647388468018,-0.3990408647355066,2.0564389258256237,-1.5647866660340988,1.818780185602189,-0.3693841506627088,-0.35908707886396385,-0.063680761097587704,0.41278510297996612,-0.84801323304823706,-0.42888820735155442,-0.73005482817692191,-0.23380191711424989,-0.5026007099598051,0.31057453350797787,-0.17616405260349388,-0.5495031454915672,0.37369583326036349,-0.13341680408229106,0.27668885079445338,0.089880814472953915,-0.98767791309701802,0.35962893363127207,-0.2946271090502629,0.82144900578856361,-0.1922601582376578,1.1284996013800823,0.19721849541153061,-0.89628560491294595,0.75093869166225347,1.4035052757479647,1.8232237403033151,-0.24144057737088589,-0.5200893220092675,-0.2124643192332355,0.0237459008989345,-0.27331699818784944,-0.24682158567511492,1.4901869318778662,-1.0994787715883934,0.32775044855633489,0.76702011556736049,-0.79287208567399636,0.10648521062360601,-0.35639792341585724,-0.51708763084098275,0.88310128241660535,-1.3589036618419246,0.69203596455031979,-0.57301480633877611,0.40746731515478812,0.38372908812391099,-0.28944670533070233,-0.39405835062321393,-0.91714453597123358,0.33516531918503845,-0.15615871487221361,0.037532222382074994,0.86169404234438829,-1.0436172591872257,1.6942026517339959,0.13211202178629353,0.70864726946439116,-0.42817612429568086,-0.986955671560374,0.49429388018212783,-0.6765566210306958,-1.530287675241915,0.16354195101446137,-1.0806422733952949,-1.1030073207557878,-0.89949640200219128,-0.64893159717440518,0.52106685202514413,0.11609771699428022,0.66056084504730683,0.62058088304400216,-0.58582587275860531,-2.3787101395884491,-0.95957586791751048,-0.88821159446409259,0.51179950006713171,0.89364336006023204,0.42654358152066668,-0.024724604131373642,-0.65695588548129524,0.93599497291186451,1.1297540438171341,0.42226919834100646,-0.73798018245528862,1.0551103762865293,0.28238619968639034,-0.46731075629559576,0.62842881533228301,0.1499377199552665,0.41566962989294792,-0.44490734537682958,-0.042478254444664541,-0.41037484832445403,0.67520682807385257,1.7862779863092491,0.95166480535620945,0.36481960117578072,-1.4433479438704193,-1.1728993132999339,0.54083445784809447,-0.94436576742472378,-0.8525217295075751,-0.89783426942582734,1.6009454580237703,-0.12158451879863762,-1.9252554332004472,-0.12344833003885253,0.19425570788200736,0.5477068277607231,0.47439103444268188,-1.2570982803675306,-0.53543712610997451,0.16453346546003134,-1.1639388205678176,-2.1264533346558978,0.68334636114473557,2.3928071138220539,0.4647202250184026,-0.22595539067333043,-1.3858986962782773,0.74749146093332663,-0.62798350111303913,0.19808656227143012,1.0327771028410691,-0.18989915425753651,0.26596238461383365,1.6903914828504536,0.0026199236519425257,-0.14520600179867399,-0.41116461627952428,-1.4508846292279141,0.82750695875109903,-2.4024627079207592,0.66089789344681449,-1.2100873727935975,-0.53743457719179744,-0.37794786105667999,0.45826208844062272,-0.99043373892702946,1.5585321788427233,0.8226984568482455,-0.59485164956907532,-0.59512881969061593,1.3957539511291883,-0.10318477222060002,0.11354101645927518,-1.0534952848063819,-0.87773669170715352,2.4929785520745544,0.37904230727579369,-0.37359001569437283,-0.18698807783485713,1.1749376522375603,-0.59181383396945364,0.3876132484362908,0.35072377402705074,-1.3455915278454955,-0.46709692526949559,0.81100994919818969,-1.1510461933348124,-0.61237710775663823,-1.264268906399143,-0.073477952164344357,0.56898842733672739,-0.67432479498638409,0.028238502231032449,-0.60442380690958675,0.69215346065282368,0.66476304374170292,-1.9429205985262488,-0.16819765499000805,1.7058906323223961,-0.50477040251499539,-0.096211326873734876,-0.77030507676030824,-1.3865991006011062,0.27651914918738585,-1.9907701775694504,-0.53723316847524927,-1.2515161612384769,1.2138067251744336,0.1774703222455388,-1.4698282283075652,-0.19317580045189378,1.1043770379199216,-1.9663588713052762,0.35732568833025075,-0.50288065131346005,0.77043952422920292,-0.030574430950985231,-0.45725862688543001,0.22681290205951313,1.386328184245726,0.99214022449599137,-1.8815616177862402,-0.82047770089837324,-0.31416640778102101,0.63450751337002564,0.91018208883223517,0.70740780307620876,-0.57454503269520452,0.58421015753350836,1.744186279031515,0.76995366060113368,-0.20845479938172509,0.90286316410526701,-1.8367130815563195,-2.0556609968100452,1.5285143510688017,-0.74188205489451853,-1.7500494290025892,-0.13824917748876736,0.32036131134524687,0.57055394218745514,-0.21362030103990109,0.44297226375879473,0.025471344460084075,3.036822878402778,-0.71904513241398327,-2.4485454568223797,-0.20334437514974166,-0.47664894371469602,-1.1641775413484166,1.833647053385324,1.1024609570713513,-0.31058357273613491,2.0576253911205891,-1.8628230530256822,-0.028607164378861481,0.3642941122516381,1.6817223577343872,0.12635419115805302,-0.77501600791776482,2.1465363794112244,-1.27670333716393,-0.84378514751031286,1.9844341075892391,-1.0617597015946747,-0.9679679099181806,0.091544822165111867,0.99501139597053001,-0.45914630907201293,-0.56310943752724629,-1.3860362203542682,0.41639090177326959,-0.14409654827884008,0.68829705341463665,1.0847608270242242,0.020193138714562964,0.30479758617529168,0.78291703059202022,0.41545675104853019,-1.1815558077851445,-2.9020400446541372,-0.70705883088046362,-1.9959302006540567,1.4797877360408203,0.099566714706071882,0.92374163120393848,-3.0070041830172336,-0.69292696297552692,-1.4689570971301877,0.56952953718261001,0.80003499318294136,0.54578143457674078,-0.8167713460449707,-0.15181444512275233,0.18881365483954976,-0.82305856224389451,-2.0079843856684301,-0.75167077623601841,-0.4697772978431749,-0.43676473902979085,-0.78659077548004308,-0.059169779122512103,-0.45280768800865634,1.5773907929278219,0.73213240220224995,0.71482087008785977,0.47062144915519161,-0.28148588030584154,1.1099499196841744,0.80003749120570167,-1.52332621996413,0.50548574299814786,0.78004613105367548,-1.088713462717203,0.34955739525168555,-0.4388656641039812,0.47161665819259579,0.28214925395953627,1.1641214207991566,-0.73368848070216208,-0.67503130592189442,1.189315409400308,-0.5580712382970574,-0.98686093308722467,0.4789771822343738,0.80176295309438761,0.69275139552195797,-0.26506840791319486,1.4611883380332076,0.013362100166622842,-0.24536456214829985,-0.46997535868511964,-0.68419584092343555,-0.53183174770231489,0.55393862808998218,-0.95091337339191373,-0.6419384837657478,0.48637896817694248,-0.44540096236028054,0.6353966539025897,-2.1964674755626463,0.83360279347415345,1.0672771080388261,-0.80535113241941025,-0.25699478401195713,-0.78229982068764725,-0.019117067373631655,0.22101045688922549,-1.5565101307533347,1.5257072530500384,0.96079244037873746,-0.014180957945710023,-0.70057664204878689,-1.0816949417374169
-0.56781921576452843,1.4672774843635727,1.6215498951270999,1.6649964298508257,-2.1230733258222392,2.3714840979131626,-0.94891543471712569,-0.70073802796760243,1.8425869496322245,-0.11836247902899311,-2.0702654921516985,-1.7278564833184342,1.7589064114538857,-0.4487259934890524,0.47515731899474767,-0.060279426884683088,0.45840747446896868,-0.88106917087265613,0.82940556545726829,-0.21441533050000208,1.0466631586629136,-0.61592443390671803,0.27884738494101868,0.4029218240502877,0.91312579150272466,-0.58649443977783489,-0.29564893002737941,0.85182585915122078,1.4990092785282072,0.20842555752126124,0.86790960648324089,3.2385400077221997,-1.2277035582761349,-1.681854627930693,-0.35118744707211141,0.82549088457435149,-1.2366924075647854,-0.73109200175355882,-0.98703766190419817,-2.3522553992124546,-1.4492750496773716,0.0050246607315929479,-1.017051159225445,0.89939479246814391,0.40429448066290574,-0.10670512256614366,0.21422415008031614,0.39215302642731859,0.0038015691715011565,-0.42354425983280153,-1.6867219241468885,0.71174494772015762,-0.35358801571393744,-1.6213566675993363,-0.51829768841319834,0.18020205042818091,-1.4925909825056969,-0.65354483395455032,-0.30640689198307175,-1.255379507782131,0.11940968294638911,1.9941256259897817,2.1684428214769467,0.89638618210858578,-0.56497802929364971,1.358816330468573,-1.3190879443155434,-0.51459717065758304,-0.73634706275075934,-1.421092931047647,1.3633983150816507,-0.78027702413333222,-0.021351327240028278,-1.0209598315696662,-0.80083661237574255,0.33439156535891906,1.4286303897296131,-2.5879225388324394,-1.5179108147731371,-6.9500440625809015e-05,0.82362718157974857,-0.94581843717588854,0.48257014347422461,-1.6844616047934229,-0.043555931190335531,0.45042872436456272,0.93992380337834336,-0.22158695113385168,-0.29092344490602001,-1.7788548122031123,0.67854667901825705,-0.5329158913615456,1.1626033067187673,0.80745000391203947,0.1012255123755,-1.2851705138136287,-0.52010662388907591,-1.1327373176397872,-1.4975555513903023,0.50427124279033475,-0.36733977184680067,0.042989716103610881,0.8915279274722322,-1.5320035295577656,2.2725292719876231,-0.43802391770552257,0.96135477989209639,-0.98327380486313953,-0.093243027410074272,1.6955009136719428,1.9944794728119064,-0.23256548767595811,0.030816546282394133,1.2605011824952994,-0.76058551468823021,1.6888320678521624,-0.13517041005197192,0.93447376860503817,0.32534551014253665,0.60604854422220078,0.43346574362655238,1.3611664539211634,-0.17190304299615178,0.22987714924502956,-0.10510070649392493,1.0253176901655769,-0.30333114966558233,-0.1742196985170921,0.79516225966615717,2.8173466183689864,-0.48148044536369422,0.57444699408686895,0.10826564908440149,-0.61110439952973028,-0.3950105249018051,-0.26318067405635986,-1.308704734972959,0.28990824935116016,-0.025587907394541434,1.6790074168501212,-0.67022332289657027,1.1649718765658827,-0.062708574700634304,-0.59266250188894432,-1.4578112275135544,-1.5962015399788094,0.48679137013870255,-0.30458568851330908,-2.0166172816321652,-0.079961156287605389,-0.96854967985795792,1.5402866485910689,-1.3594758940054605,0.84827530839859111,-1.4119385707062373,0.36732397864449501,0.16279372601237105,1.5162789202504501,-1.058607792090877,0.069018947730116714,0.57361050683301962,-0.31344874498581266,1.1509094861407148,0.071752966721371644,0.078341692680925279,0.46985686968771667,1.3524505663139992,-0.36219516734427776,-1.0237210751931463,0.64691248493172726,-1.7268885172404695,0.9476502161085093,0.06853510714799603,-0.1552474589174701,-0.2470209134826705,0.21952291860291478,0.080404483723841569,0.62556451496678633,0.13695936107103301,-0.91685610568671583,0.3196982628135861,-0.51958744815663771,-0.15738848599373817,-0.81381326802697296,1.7270480170208717,0.54632921197557949,-0.25824137428735761,-0.53299397180455832,0.90652758936982503,2.0412247501478178,1.0565933937866496,0.47098022300779097,-0.99981626737458806,1.9886953674618995,-0.33196210931910874,-0.36754353357386982,0.49979676933821721,-0.60651222152111928,2.6522014833031262,1.9884760670615313,-0.4489357926224995,-1.0650236790161227,-1.1018483944214963,0.029046559868197184,-0.17181680160478136,0.66013461155895592,0.031514493934334177,0.89199058754348037,-0.18831895120280848,-0.84997999586080686,0.37277767924939054,-0.43044355868855755,0.31290221857343098,-1.2638992924705448,-1.1134038766607939,-0.54267500641419975,-0.26292436601359248,0.024298623223727982,0.2333071392226784,0.62924260630890005,0.84711525695108048,-0.55110142153657982,-0.89061156234660743,-0.40617827931361788,0.14866408168938919,-0.54025396792937452,-0.69292493569290925,0.41261258647173815,-0.13363439365913668,0.8816371689606769,-0.76457796470537331,-0.89876794543371419,1.1357554973735984,-1.0373942759648458,-0.63736920597645674,-1.2924734368930504,0.65925691225856509,-1.0320745004688263,0.82775483480695111,-0.55819622314452633,-0.81163724782391522,2.1827777291248101,0.63318083560486371,0.23768123114604395,-0.53016955766552232,0.15024682064609479,0.22767825025389682,0.084605845797986912,1.0104063376184258,-1.4079937586529432,0.1108634009256655,-0.84991066658719305,0.20096489277096583,-1.0703309238294545,-1.2494414738220145,0.73184296759522249,-2.4145939076630798,0.53366785178248699,-2.3293510130238868,-0.70632881006868331,0.087584487429359287,2.0408943357382334,1.2044198988098456,-0.44365372275519532,-0.31359570315341867,1.5203997294187523,-0.75823875373521143,1.0542969244923566,0.0040202377635459516,0.91391598537733865,1.0461672410882688,0.24743539740694173,-0.058759167991784891,0.86832264353672395,0.052087737477030112,0.12173212561195354,-0.94605430504616006,-1.1262515657707881,0.088903788162440336,-1.9532622454920194,0.12075689326072386,-0.54940544435533656,-1.3837881476027327,0.044163219864946437,-0.041076498740026862,-0.6368117916271594,-0.16874596387877067,0.42823803976789704,0.98743991116003615,1.0403636975607244,0.97654150571444653,-0.52095199808295778,0.035128203462566489,-0.095366396847358259,-0.90083819756815742,-1.5894009404853306,1.6199564952520438,-1.3909673456459368,0.89692732644762252,0.50474657062781036,1.2382983928469704,0.16629515096891417,-0.16400210463550191,-0.26152834585202073,0.47802428047561774,-0.075215831948321946,-0.59508715133176393,-2.379119080616479,0.25078287835545376,0.15455346514916862,0.82375631925730897,-0.11816616519953271,1.8268241578774345,1.367599110997177,-0.18647499855464289,0.10673199127898754,-1.0617182895897155,0.67722557601926359,0.1146111499289537,-0.4594441992264765,0.34922473879674859,-0.25249473814222778,0.070851715441598406,0.34298325462004919,-0.11634676790164007,-0.19084480997090125,0.46443674554134456,2.0077520393051063,0.11936372846607586,-0.083018936336137258,0.32035223910139027,-0.73967957016871011,0.70556715285669458,-1.5763405943347628,-0.39270301394963875,1.1039542071714255,-0.020466038423968391,1.3737360459695382,0.3865623249375143,-1.0540582772139915,0.94674585125988664,1.2838324515810891,-0.85719188481457864,0.64236731239545919,-0.087639704108993854,-0.47324962505428209,0.7802813363764326,0.13728722792687634,-0.66753264685941993,1.06648458018979,-1.4162516995670837,1.3907235159981273,-0.31553641726078596,-0.89202350448912604,-2.1017379177276729,-0.95827198697555327,1.1745459291847113,-0.64178957400936198,0.50197401573069023,-0.87439184781641466,-0.39427472507255296,-0.17184302287927233,0.39864277183940267,0.47713430441759358,1.3550772240691293,-0.11118949489169401,0.75118436052106996,0.13161450580808084,-1.1156285624730193,-1.0347757404842788,-0.59235880541302444,-0.45518910340093005,1.207191947221024,1.1814276595718995,-0.25369492299234347,1.3888549984657632,-1.5883780854245382,-0.41942308019568791,2.4721916225354859,2.3296603871185595,-0.54584637403597047,2.2026947018350316,-0.52834899577588124,-1.0342439966864598,-1.4452103302668029,-0.16599550901580357,0.014183475442710146,0.62030010238905742,-1.1922273270861303,0.80068038325806479,-0.73717647210842807,-0.39620175584686712,0.64085214850465155,-1.3058967095884517,0.18765598460996083,-2.0035739849724217,-0.076983528312299931,0.58769932908495826,1.1717236041908989,-0.51863944458416222,0.66553960056359951,-1.2818173971468236,-1.931241528980487,0.19603189233235527,-0.76738091553583476,0.31188550306333412,1.7639396019635525,-0.079036353971416534,0.53263337543953027,1.1633462228661149,1.2548262655698599,-1.8258801696916065,-0.63495586361877021,-0.069226781608385149,0.39561176047031771,0.70120864388855697,-0.0062222902009997439,-0.24381762186204309,0.79254397966182066,2.0460161730116506,0.48153372809886175,0.72738871129708949,1.8917506046226167,-2.4598824997447624,-1.4293804709778142,-0.24818673941459332,1.270727633265371,0.83806376671005656,0.4117414000815583,-0.78101032209383925,-1.1568472459499317,-0.25050247176424384,-0.13651395918025477,-0.34786082014277603,-1.248341852767076,1.0879437807165508,-0.5333423537627251,0.44926191284144223,-0.060552716544292964,-2.8561042979478515,-0.92726336551078947,-0.62560463477599315,0.75448580325264714,0.49826053098712825,0.79498110936263044,-0.14737191168993688,0.0137238804504289,0.90255768380991097,-1.4515529071540434,1.0061857648318939,0.97351814283776361,-0.88060866277708538,2.4471776496521795,-0.89547944586076755,0.80134106142945449,-1.2413424564830602,-0.9627915011088124,0.64079394787484889,0.6705752894100887,1.4385523795148185,0.59803159923772653,0.15991021218181237,-0.42886715446448426,0.00011226302802090988,0.20161359955784086,-0.25104122171974286,0.61128130123439783,0.72007231206228695,1.8715400831280946,-1.3545949352638791,-0.52261262229652372,-1.1554298405120949,0.52974890981427558,-1.6725230951238061,0.38444977597661278,0.41260622670759944,-0.11360215524692192,-0.24187198729907841,-0.29195138198357684,1.8463154962895985,1.8120497658822208,-0.16551687691775308,0.072437196726549108,1.1222481271546403,1.6270138991446794,1.1598615001527963,-1.3532438479715887,-0.3954335961860721,2.5067436660558222,1.3916562493800009,-2.0229322460853596,-0.15332851107681472,0.031059174209251673,0.78533970576152068,0.60347069570388756,-0.12850839921341856,0.18098023284822864,-0.56025463162708977,-0.82493212513560743,-0.99103622512223266
1.038549957090793,-0.29506903234395315,0.17802421488864706,1.2059130911579832,0.64549415343785066,-0.14718882693715743,0.5201798093305342,0.41556994136419051,0.82629480714087544,-0.70194184533572546,-0.45781462763373826,-0.88675119474822384,1.4325675259293389,-0.79314852817496662,-0.85927705301174084,0.99726100384235195,-0.25069699047505517,0.70140083162343425,0.87781648703747983,-3.5444344307293778,1.5311002735017682,0.10645227210545961,1.1092159767915539,1.1889518419618312,-0.7179721621677021,1.0937751486320708,-0.15913227194131951,0.083955337344846281,1.5080467293177222,-1.693175979809147,0.80458107224226183,-0.052515998194039182,1.1230728087861381,2.5667321315159173,-1.2332369047018745,-2.7752035925987819,0.35311694559768192,-0.76083995567564877,-0.13882621821640884,-0.99575118901608717,-0.23088858571432883,2.4827971946458876,0.089801820729333445,-0.63415890950565279,1.1084295311937835,0.42489699107740275,0.35305384888369434,-1.1958373120957542,0.86278606701572291,-0.94540479998903126,1.8318925186961503,-0.21197112429012038,1.6834711901352484,0.50144221816772905,-1.2068867646630375,-1.2872328786782301,-1.8377255919207798,1.3663066359185543,0.76469054914726542,0.10218563662725658,1.3179304981752864,0.39057370443127848,1.9181816950188391,1.1348760172917507,0.89439934068193627,0.31146694863343632,0.56394030378907645,0.48261002711280543,0.65963845170770641,-1.6474353033559894,-0.89880915238614567,-0.13205350143952763,-0.12671790500319194,-1.6644765943246453,-0.69223418256159253,1.5548433446408241,1.8891547506373356,1.1753898017897251,-0.072074104272567857,-0.18844679730361891,1.8021368568905862,-0.14502249988999547,2.1257810643007033,0.71808082004401363,1.842223294288537,-1.2231073026791215,-0.92946367091959592,-0.3260678170520675,-0.87744199701443115,-0.57981533695100873,-0.81105619607051271,0.26991324243022286,-1.2816274274504513,-0.58587431995492123,-0.88600555451621477,0.84282480665277604,2.3640786851654259,-0.2508764303936587,0.16591283321316128,0.90174704597251121,-0.39115327317238457,-1.3492501217074577,-0.51040967439463103,0.58513749170198515,0.80148516306682627,-0.26725720806079628,1.7656043749417671,0.013393022019776416,-0.026134234089329911,-0.33573360925245832,0.23377776404088368,-1.3554874615693582,-0.059096429250013953,0.31400081051670958,-0.075519394639627715,-0.1678467392731379,-0.90496304236303937,-1.4455165394662062,-2.111806783611784,-0.78933045573394567,-0.98150331779658895,-0.42097520786984333,-0.0051691197001734676,-1.1362894284138558,0.34983154759568191,-1.0669571627966723,0.20899567950775824,0.73988669572198962,1.2153282566252419,0.38039860578181867,-0.58098273480032991,1.0084407060074065,0.2091947975394346,1.0854517121822287,-1.1468792075156558,-0.78394437722770927,0.34391419638770349,0.60456155486989971,-1.830070260981318,-0.055614605367907625,1.4491374652675513,1.8584664696562077,1.4305698369462041,-0.56960340412570631,0.054057077032663922,0.055756938258406566,0.81808107878595671,1.0755553257552346,-0.20552842557362377,0.55723116714047882,-0.566535871166441,-1.8289092355249585,-1.5824092017829474,-1.3718634195366439,1.5646757024818301,0.78741605960276162,0.74587486173701489,0.47377824394076351,-0.80509663753104965,1.6439430552643424,0.25894269689091609,-1.3658188270016443,-0.52411453747524672,-2.2426988747503196,1.2240506861263913,-0.25865176612750546,-0.43587577605136957,0.15380521365656602,-0.2963508344913024,-1.3875608795413001,0.18278003380187383,-0.034518449243236618,-0.48526927933595809,-0.06542510028674306,-0.006707712956353664,0.98105214374007144,-0.14764120417200075,0.32234233544010954,-0.66011403349841424,0.40741236274129616,0.60018159055420484,-1.0993160329496918,-0.76207168467253195,2.3195918387407546,-1.3605888404259729,-0.52056394813225426,-1.5096373163952495,-2.3683945867690555,1.5394051075332409,2.1076382882376055,-0.13060336947910342,-0.46240737870048199,-1.1479347044928778,1.430545386557722,-0.59547624428826806,0.31383310506110185,-0.28635625741939769,1.0090461177043877,-0.92500970643501501,-0.14349975841734747,-2.9836984821839074,-1.6700204618766321,-0.81490717582710037,0.45045058661426918,-0.25011489514310803,-0.54677152683847263,-0.58858722412820241,-0.37010718317797647,0.43131997142088907,-0.82636565121587402,-0.1322993630988635,0.13556619162927031,0.84639763761497544,0.090866256863640471,-1.3045231674072688,1.2855141469097986,0.56950690471935828,-1.0819678398376136,-0.016583188890932014,0.77907745189583499,1.2703961356266531,-0.28744695555638666,1.8689584831467734,-2.0063055951448767,0.57603900611558068,-0.8501737293984879,0.3083149930835572,-1.2482987917434607,0.593291460101664,-1.3862696083705588,-0.59931359235264092,-0.50630470573115383,0.2960019520560197,-1.1113526281275874,-0.43960890072128961,0.30258765127541087,-0.68859067791529693,1.0994342713595389,-2.6707887522910081,-1.0788102994408606,1.1248584544701223,0.29725879099332475,0.19533623871054834,0.37662677764392399,0.80407392620614804,0.91019904976036836,0.33336093579701642,-2.4991841456799748,-2.1413814510760423,-1.3524686243848487,-1.7442158523864812,1.1000745326687282,0.013920615399790599,0.20177212032490935,0.31391640762520789,0.34598757308805356,1.7729637430187426,1.5128834942404126,-1.2639625573387403,1.7867868476207098,0.1221892144009341,1.1292655771979259,0.10797809166900277,-0.11170089198153285,-0.45218948551381294,0.43484347562771453,0.071034620541968296,0.52168422202564158,-0.088298568967074734,-0.24587629588645293,1.7982117677162937,-1.1193625199263704,0.94886842540084959,-1.9264694671569842,0.36942069194096566,-0.27777192248452492,-0.31053898989978423,-0.48594302224615193,-0.26110843246385995,0.29586153512717217,0.051422405692247389,1.7870104507945086,0.047392146218265839,0.6055009307413336,0.93215600913878127,0.97149981869163904,2.7346517966553789,-2.2141829908918811,-2.1598644874504913,0.48442936293865535,0.62691983009899677,-2.0755619618801116,-0.1940465721107959,-1.9162703707297521,1.0278517217705623,-1.4798191458572447,0.46870728837243603,-2.4328835082527003,-0.037271978808547143,-0.60571890883606971,1.0962787283871374,-2.9177524280957035,-1.1370231032839797,0.54513685867180728,-0.35603270471032744,0.28786390967738457,-0.67943727547964439,-0.9512423295924638,2.1228174476963848,0.46337296347503665,-0.67119729196365963,-0.052746190752401598,-1.8824163107370198,0.053516945016802188,0.066066156113790284,-0.023732760979718947,0.46607621929437038,0.16490295548205972,-0.3743229908379424,2.3223503742091469,-0.55280474716256445,0.07480512250422526,0.23850355400657997,-0.066552571159613591,-0.64300164403492965,-0.05578099699326998,-0.16968497757619855,-1.5053868383096733,1.521650635453335,-0.59607122822225045,-0.78811121301723708,-0.15803011697012356,0.16633930177860964,-0.21153286099496282,0.46678464041089412,0.77006865675400815,0.30814319592969625,0.30949484662623572,-0.79462384563886113,1.5303416882013106,0.33657026809607332,-0.21868224505193787,1.7152019163669954,0.059326254581486673,0.99457295181522143,-1.4806574500280856,0.74653913576479536,2.9369743882026058,-0.44320522381324873,0.4995326023646936,0.38437623949669514,-0.86906218200960306,1.3981655387311094,0.49773206634496975,0.1435479160659465,-1.1040382675562066,1.6172606873510664,-0.45308110297751519,0.19408962652937956,-0.060293743820803949,0.25635600279906623,-0.90362406455848854,0.56220083304176283,0.51321862547309638,0.50808716628585748,1.271964048027473,-0.13032674402283076,0.42024405876240423,0.85212748266174587,-0.74557307359491509,0.06390211222156357,-0.15743315687752152,1.7167056619174381,-0.31333900527446812,-0.37558065546516656,1.5768740259055933,-1.2998043948995937,2.2106540226250369,0.061347026766452616,1.2913094914740577,-0.14096260266017144,1.0884054357567741,0.97223239632533232,-0.80807856048105231,-0.87257685877614666,-0.24621546412918266,0.058663946930998474,-0.794325462593507,-0.31872201683684376,-2.0032920407732493,0.24358525866167102,2.1672562439226035,-0.061878292289416957,-0.010486382675772368,-0.20689005734231694,0.27790607396318506,1.8646393910053054,-0.10834895835122975,0.095611278814216563,-1.6780909567007674,-1.4386552168341651,-2.0660339566159323,1.1273669448690322,-0.13660380825966895,-0.69980975314529859,-0.6260806671261272,1.0094651704799644,-0.09220123702558547,-0.21315667424786142,-0.59062944623090163,0.55967886150170443,1.1152053192890046,-0.13350465615148177,0.68437281770969671,-0.45787556972548044,1.6606846442408509,0.49054830947999245,0.112257418895142,0.097514221303061588,-0.72546161138986087,0.55253900181468185,-0.3837460305367893,-0.90537566511517165,0.81708849014377483,-1.418374429773118,0.10811199912185132,0.6182678788223166,0.62922049988134943,1.8379158400429527,1.5433231301289037,0.83533295714237654,0.30458279793052134,0.8882541653645204,-0.21722698505300059,1.433734810023372,0.74677141607989017,0.53812541815012116,-0.17757848748319685,0.64567123249085567,0.3220750485968607,-0.46406857670291307,-2.196352751705692,-1.3114764304702486,0.58951349693568889,-1.2401633868673716,-1.463448508258633,0.74214388435665168,-2.1620135756838734,0.056898041390114326,0.90711508835022037,0.045220296905723129,0.27819303954310426,-0.12273515805000237,-1.5754673602009823,-0.016256751551450403,1.1665718292562373,0.23127674198447845,-1.5003374174023429,-0.59908650199828872,1.7866980249084832,-1.6586763782543306,-0.031192336083991936,-0.86753506860121155,0.092855905101380962,0.48970419592504999,-1.4617459445817123,-0.61638624485538651,-1.0645375101370746,0.3206637431508676,1.8200011763487063,-0.73363501472317671,0.9176987410147095,0.15791865314813597,0.098678807218307296,-1.0061200373417836,0.22302783862947187,-0.30401287191262655,0.80077299831797288,-1.6331572234127876,-0.43741440032421319,0.001076384455450462,1.5537715750796037,0.79463887897303176,-0.19515192539538243,0.64884984016267333,-1.1269174994664664,0.50387413964684247,-0.71383156641000567,0.84526662805652653,1.6005211144824427,1.5115755117718137,-0.072675435022328566,-0.52988419168927492,0.087123666166391917,0.2140803247890701,0.78849736068953824,-0.65478482456987497,0.45145052337702107,0.48968033878032724,0.88553893777837334
0.83803306084697826,0.036087024715198597,0.56178277480377636,0.11492481870889562,0.16170499215592105,1.211357547700292,0.30209112928409637,-0.46897508362019857,0.56887302213965196,1.1235965293075079,-0.031702523377677851,-0.92881356916954372,-0.88701214820311236,-1.3520910243487174,0.10043379819898079,-0.39937248922112101,1.3228696907949142,-0.85106420983446207,0.90856799600729177,-0.27788890123646764,-2.6095249396196745,-0.47077165339702171,-0.38563117671076352,-0.17222400588662964,2.4284952298845637,0.59665949594721013,-1.8714661080444912,-0.24873496129007924,0.029021476342273901,-0.91419827685742638,-2.0765810409580876,-0.4893416262707585,-0.42603956619585992,1.0934459844719195,1.6888873734946426,0.13446401502592925,-0.70141673244319891,0.52243365715275147,-0.43540521577601909,-0.14096118202388846,2.1251443766167637,0.48543592158456322,-0.67906077645192264,-0.29939471857380157,1.471986932612676,-0.17860775067632589,0.066919356952206563,-0.27364613876198113,0.12412403101666636,-1.4633128864543485,-0.6833668081113824,0.40452396313807099,-1.5333800510845539,-1.7578795382077892,0.50040126561133724,-1.5955191990804589,-2.1804718673095742,-1.0396130754413573,0.038312166699774497,0.36891291514772923,0.64505915422414317,0.61517844269859079,0.053622626979144279,0.97126589180549927,-0.0018326885911390451,0.78473983161327443,-1.559353371671705,2.5507396834805305,0.5738578538875404,-0.90010457695585966,-0.021845305866729465,-1.3002228910790943,0.64331402550772976,0.18189126068475076,0.77832194961570356,-0.9324366452920434,-1.8838914451237105,-0.33964557726848715,0.7886172905825547,-1.3259291808900997,0.25091872105633289,0.24755555313253955,1.2657139344089845,0.9785173587798206,0.71525473483216617,-0.97381738854593825,1.2523910128061926,-0.25509360784973945,0.15139143698371341,1.7166168423130657,-0.29007723272329811,0.58931791559676683,0.3908813848361718,-0.63570437031089477,0.87174144212422366,-0.7474643121215,0.46310660991023622,1.1799384543945033,0.85777186423354812,0.36916217908260307,-0.82740966347061773,-0.010980306820425511,-0.31298770783595564,-1.4657363737993068,2.3830117928837753,0.95767929143274388,1.9826941116680858,-0.79171028644774477,-0.8530958860115142,0.98705388915779035,0.13993384244774404,1.2693861768315586,-0.56166386550067182,0.68551478306726477,0.30158089689081818,0.67611638434555066,1.1215546595919574,-0.75747602087497201,0.91750697788885449,-0.85093681867836723,-0.1063770850276686,-1.0480433105024005,-0.96282023573656184,0.17762669027267469,0.87515131180523531,-0.29385963962186501,1.0369060266865158,1.6817393328332981,0.26929050716686925,-0.6118195612088726,1.5348148242183379,-0.89948640094414056,0.38744536311355166,-1.2150548095124332,-1.2719680207750643,-0.22180702743170422,0.2223690905276095,-0.25410661580429095,-0.53054836862289945,-0.70746617337763906,-2.2612097757555953,0.029319494846719946,0.26159329567870537,1.0977905302074198,1.7189212742536981,0.54024407219015125,-0.60270467187674337,0.20953828165590072,-0.062568150271099812,0.82123889994269994,0.56191618460489123,1.3880536217527917,0.019597358764033127,-0.58689518906845384,0.54035042500692765,-0.13929134882693595,0.046299301652735998,-0.96322054405493052,-0.62388736834388792,-0.70504573402065895,-1.4867563347410464,-1.3153205399964238,-0.83329235074257924,0.6730454995751155,0.97608211313359661,-0.19472053185294597,0.32841246854965478,-0.95748784513703944,1.8340257240693498,-1.8986263757786932,-0.18602775713635383,-0.70056410303588024,-0.86843989762641283,-1.1634942857123183,-0.31736436862793499,0.7571711854057519,-0.056480377698745261,-0.009571161736164532,-0.85058451822577208,0.70635844265299363,-0.59874176627796249,0.77302109102742322,1.7066054200320637,-1.7032621498973637,-0.81185420801797292,0.26088550898887097,0.076488798882814957,1.5379559384479871,-0.58184323245998293,-1.252680071133963,1.2090336844691125,0.57356369630072468,1.6751345071471737,-0.63976613393031889,0.43976381431242173,-0.9888265981911315,1.0125369388961052,0.61407978865766766,0.11391556993469548,-0.56402044217698022,0.87632766719701782,0.10533157350863621,0.56883882170015043,-2.7424184383963617,-0.67736038551173583,1.0177492524156504,1.6169542611970413,1.1783304501213521,0.31312754796290743,1.8762119081741846,-0.24139675571949734,0.62804035403707292,-2.1254896558464123,0.74876523035330034,-0.21360222566724446,-1.1400311289609504,1.6728185788303898,0.08002790798665034,-0.098072799551542675,0.22688269800944616,0.068382378112725739,-1.1247500634019973,0.87785864221305698,0.25109830717412723,0.35951587088044074,-1.0741286632498692,0.12869126740807912,1.5123454802153418,-1.6030115204892474,0.29908633426482972,0.25679227764463614,0.31931675127924236,-0.42979936077935216,0.23960972068193531,-0.50747122607659911,-1.3655381133166808,-0.78737430592492796,-1.4344255489657762,-0.30245574880775328,2.0352561502730002,-0.69603130634669574,-0.54076700792844945,-1.3132651064660084,-0.93925121218697682,-0.67711132914898986,1.366490564663106,-0.75079319747734996,0.03808665381252381,1.1314566026121651,-1.5194507028906443,2.2867344753778633,0.60535021247017251,0.58111871165440576,0.046730452522262884,0.0056135301658795708,1.1268016902785678,-0.71169301858161316,0.42342860672737948,0.32733105111616739,0.2449191186979765,0.65263792451653579,-0.25924870260791932,-1.0785836904969686,0.90202766447653171,0.8973598622705552,-0.56341475835754484,0.3981799072555201,-0.44071355700253589,-0.50998655437587626,1.410362862240667,0.28031787374830935,0.42981474113969276,1.3531707372116248,0.89574264094640577,-0.27200186834663981,0.85023794279246678,-0.18652998490508083,0.36538811863994602,0.10282545853408485,0.56634929906585318,-0.07032372556929728,2.4534090181534993,-1.4351347912917929,1.8893425782673152,0.51161210335897456,-0.66075244424722934,-0.98784533965571508,-0.55481654020161597,-1.8705704162252201,-0.15293311968045045,1.370119938385485,-0.18962023495540212,-0.32668867653636685,0.071501113174556277,-0.23517110640798988,-0.66277372222905984,0.40316743222904,-0.099500679497361563,0.9524599163808023,-0.88497223797011604,-1.2469654268746075,0.4900028447053536,0.28128493793677661,-1.8298535546014207,-0.41853863953002712,-0.597152153171849,-0.82052430738109339,-1.0261213057608733,-1.5510077757833833,0.60038678002822388,1.0095745878343225,0.25842013771224659,0.19468837290886132,-0.84059516108017918,-2.5436006921362142,0.99554339375130374,0.20339601711566799,-0.40334839091844282,-0.51638026246906188,1.1806965898957196,-0.50137628543779189,-0.76807706842805645,0.25049312329150214,0.60485819583648404,1.2828223619551129,-0.92409168607950776,-1.7706070050785001,-0.4152560042814018,0.16109338396013295,0.17804226362003356,0.78296352133163394,0.12339221259113095,-0.30713621855186268,-1.4623222178276261,-0.52804474238076893,-0.074930525088841557,1.0807662551504469,-0.57083078724553671,1.7601185228966107,-2.023566523934397,1.0136495510019774,1.0612092580040124,-2.7714114111507442,0.16140583268211325,-0.56237539698648409,0.56561091963407517,1.1020461727042459,-0.94138440327941131,0.39048259925242307,-0.10963184481553225,0.84572078504968995,0.85612734721561801,-0.28583525658322084,-0.81262498991308452,1.4350680958051827,-0.42186340974954412,-0.50581573417537418,-0.28098125121908124,2.3536338776655623,-1.6793882579556749,-1.4303190504544161,1.6304335073429352,-0.6318771854177645,-0.33985795981565808,-0.65693821120664286,-0.57856494556786109,0.50677346982778282,1.0354725798738982,-0.82870627214126047,0.44586541947432512,-0.78010636017780555,0.21300530653315597,1.9375350041071968,0.55879026115522346,1.4603245656365,1.7380844668684796,0.62869017886122247,-0.47466315348664645,0.4624064466536259,1.9759912563926472,0.85852414165034785,-0.025428992098762804,1.748450434520276,0.22298383312661751,0.37713953731683197,-1.2476658797039861,-0.40674666935373049,0.80664660256955301,-0.49753987349612899,-0.25754078466175362,-0.30366897758751921,-0.69144646689487521,-0.56222953354400773,-1.6076326151381644,-0.89080425713204892,1.9989688421375273,0.36106309668154263,-0.94980049885229434,0.2861721605980711,0.098456745097045162,-1.3239179218034574,0.27470302663447083,0.75899676454968712,-0.60720481535045534,0.58347327516360237,0.48179694591973432,-0.51830578752284506,-0.32465628746064223,-0.044870946737174344,0.3062170346411287,1.5178902368141853,0.19919496567418349,-1.2130949793502499,1.4101363382731973,0.663392150973658,0.67915180171022538,-0.21574993775305171,0.51141681688103291,0.86080308474276257,-0.47790716662547073,0.44876110159814903,-0.18902669196031541,-0.77900234462115303,-2.1225221053747889,0.15483041219820862,0.16413859838740624,-0.50831585848873084,-0.46783630342447324,0.4992198908275538,-1.3604369820600815,0.62361853530870348,-0.10132695111470884,-0.11516910785617533,0.35798049840158425,0.8161129783588793,2.1272756670196165,0.16611302693484314,1.1221306312823094,0.35368292590374728,0.050692664349321362,0.34636297137755145,-0.1363243670831466,-0.85144396119794707,-1.5885813298971316,0.1014061981221273,1.2168840308038495,1.5310103526902192,-0.61781881498846569,0.86371906347095506,0.79988538475261128,-0.055814328416094065,0.56222248331546676,0.71046537892179329,0.85927901812908014,0.4133168441958977,1.0378181864744582,0.15497078750156046,0.039053328269010153,0.81457495397452828,-2.3547428034769262,-0.23845007399327153,-0.39994028676071025,0.94729269683065576,1.3127840479767954,2.2958412102266124,1.847480740648632,-1.3802514179807761,-0.92319007855188562,-1.3850622684870353,-0.55879774164858009,-0.11287805541660634,-0.17361267894435922,-0.73661221241659303,0.55907400202013113,1.1657640968589065,0.6068009979070057,-0.11723267201624248,-0.5939009843311549,0.72594750578251244,0.42802396987758762,0.097982458528004579,0.45853350320180264,-1.1101155601446597,-0.79200000297610762,-0.71544889869442629,0.49806001492883112,-0.39561003148218821,1.4760708502879174,-0.49279445662722349,1.1441337170340911,-0.0043788619319900723,-0.99850483775301735,2.2400041794751826,-1.1873264785792166,-1.2661120929112515,0.13768902507692496,-1.6610173001564128,-2.5307381670527311,0.953807360741179,-0.72421768981699863
0.097242359574925483,0.20258997393711181,0.62485889914372217,1.624376275556523,0.53914120457302994,0.26319908119301855,0.61817872854736755,0.078277915324924674,-0.46690618587885729,-2.5874937917411667,-0.86548639902587821,-0.85092146757237563,2.3308423458394714,-0.80964836370016446,1.765554984672834,-0.34024520225424593,0.65639008137167243,0.68545612509062537,-2.2877276109635063,1.0154887654022633,0.12674664027061314,-1.0637242276019989,0.10034227866685076,0.0018529822353005358,0.4441092032134496,-1.059014902552792,-1.3703350825431007,-1.3063428236522492,0.27565926587737383,-0.39109671747802588,0.25328738882680035,1.5091868774826944,0.27259612237240455,-1.5139309419130995,0.92213143371347317,0.14006596296389359,-0.26111204711529828,0.2587409596539767,-0.85002225548268329,-0.15999499628562366,-2.0765552120618458,0.22962616079101614,-1.0679282215882795,-0.65909214343875655,0.15726430858846846,0.56445840073589559,-1.4192687548890366,-0.25767275264281692,-0.75148839624006725,0.73657984841514945,0.56710754178076594,1.8651167723622901,2.6702783194236623,0.55951206764895667,-0.45236946411514256,-1.1266165175125973,-0.79532934646058018,0.58417673641744083,0.63038381706794611,-0.077850208062411136,-0.27236096618953098,-0.13058341067919221,-0.48208898744399603,1.4672374285976206,0.77008276277662269,-1.9370020795774925,1.6487717837589879,-0.090898087531060129,-1.8088028725628,-1.7347787895964193,-0.68931178316024133,-0.14507835524890381,-0.55461949855788961,0.17092689034321845,0.030399355288185378,-0.69528829280241011,-0.87825408067572031,-1.3402209004363641,0.42231435933787748,-2.2923171638585225,0.45757161488811532,1.1476348443719417,0.003321907532928292,-1.1327172031466706,-1.0080061197029433,0.90305924857511055,0.23129674464668162,-1.4546718004898516,0.51384643135273222,-0.018041412758782915,0.83266355911366519,1.1788013367177099,-1.1445720532562547,0.080305731932200794,-0.63197211403186127,-0.91740881571036914,0.19324256266602527,-0.74427926596290939,0.37736485530553304,0.62880309978926641,-1.4757485122024827,-1.0755527058781491,0.5780510939814314,1.7684269720368193,1.1375699553047904,0.068697109827820263,0.053706885453443196,-0.67383994814684134,1.4389717819315684,2.2568710876020934,-0.52234301409606487,-0.64666183963471247,-1.4921634467236147,-0.6642605722396141,-0.81563529256771206,-0.77088359024741471,0.89474294878700589,0.76945637315135162,0.19767099099238455,1.2282763061874733,-2.6081381005837629,1.3264444219068507,0.92716316748130756,-0.25699403365040452,-0.035135238885662119,0.59868786944447971,0.15894590084947319,-0.11734909298347765,-1.0441797699233366,0.15072635580816748,-0.50743750844956648,1.2093136379599712,0.14391562281339307,0.1095208153161364,0.4842178829118981,-1.0428465228400108,-0.99043089507281634,-0.15954893080630494,0.89759839920252693,1.0557222639041299,0.029685236884370289,-0.95220446821048155,0.050677107758404498,-0.90380089084468929,0.038775333241717738,-1.813917318234948,-0.91110895540063752,-0.49916480596925833,0.30584104196559375,0.29602912190504221,-0.84092269692795529,-1.5458632961411858,-1.3516377814585812,0.02430326332631302,0.35111838571010506,0.45511811484314019,0.17971323189787905,0.19095867965660415,1.1940486449735348,1.0131060242447003,-0.13620315867050145,0.067777537095714949,0.75973139435222492,0.90735462019304558,1.3898206792844083,-1.4569027085124799,0.71066208622717952,-1.4513145853130216,0.98142781512925048,1.4503154280645738,-0.31567155405826364,-1.8183829546355113,-0.34989291860198263,0.6848363906207966,-1.2087794111128798,-1.3184643772555376,1.1033337188454753,-0.62225756399222798,-1.666984035493656,-1.1656337467267857,-0.52734044985275574,-0.9549144275282897,-0.65775714067293845,-0.57684560506892668,0.28214883183780221,-0.072847858626670009,-0.37376214512477246,0.11543982026526813,0.83504325874637753,1.6285584285955357,0.35799918230270816,1.5007435194186425,0.13848934308546054,0.68553327873096659,0.022351784770120477,0.75733314590799616,-0.96450094170258249,0.63882245092031131,0.063632424814585614,-1.1461585308453428,1.5243116812567619,-0.10110434097972175,0.84258168408778911,1.3340798104825109,0.14935855840015003,-0.36595107140262928,0.72893625077231039,0.49271899704707839,-1.7645927627738289,0.3847697914928489,-1.5400613528315172,0.3702265754038494,-0.12407330575332617,-0.82403329842291317,-1.4296508484228752,0.87185026669390298,0.6511078363778714,1.0797678656789409,-1.1526641303755272,-1.1803472257960628,-0.56351722750883226,0.070791749368527945,1.8285378628786908,-0.57081079767699783,0.59595297659778679,-0.91225820873843744,-1.1569777024956744,-1.1070489865481445,0.14807439019734542,-0.67584598459839862,0.916827348264453,0.98191245166131613,-1.8596243547855602,-1.6623215522544541,0.48733386812159257,0.30600416306812267,1.7262053669854318,-1.0314968029312126,1.7311326188082077,0.21456977935722693,-0.19662777017407571,-0.1758085849794484,1.41424238380942,0.71785113915329235,0.95761191075089513,-0.24332853006257976,0.025667420752836834,0.86060274017625193,0.20240514096259637,-0.78199884074682979,-0.62859198388970461,0.70117371783963889,-0.96886410549597035,-0.26831280187708384,-1.2914869729855367,-0.18012667869214422,-0.3487391994360613,-0.087151180113717239,-0.18161841001707685,-0.80202339808632439,-0.40213364124937856,0.97864315717702277,0.46879969609592059,0.10201372998973988,1.0912488840087418,0.26539706197153573,0.071769728511655806,0.89985295591414027,-1.5979838059908826,0.70783866894148373,-1.0431049256081426,0.032354764314794983,-0.73519722699411905,-1.9678602372844556,0.58743601079052143,0.85091664286025681,0.37930675880446374,-0.94470651601432698,-0.59567604615668501,0.89236495219751732,-0.13805842738721227,0.87398725441810965,0.80904364894875935,1.2234126593183734,0.84207738763458406,0.18491397807398482,0.72984863206221295,0.29831865890526765,0.063471027753433676,-1.0186856759848617,-0.30619707025647586,-0.6712914608377365,-0.71313497093620326,-1.3257302527949832,-0.41601810784068988,-0.98685077902102492,0.34391092447185617,1.5480174105117979,-0.08776469966471491,-0.321691218312051,0.12922442056064726,-0.61740784634425372,3.0084938431583952,-0.97523822887794953,2.0178054425099199,0.64506859325235044,1.434312796381906,0.9622803932832461,-0.33310946722625306,-0.25350622480953272,0.027882858345985258,-0.71620522460928671,-0.4089136565749526,0.079767610179668949,-0.54056184180966727,-1.5082693278347059,0.082116661924554329,0.060659478042947579,-0.19956481725157257,-0.26762559336802522,1.5384858789942431,0.11370919812923416,0.52667824889830417,-0.023835396811126792,-0.88336160063022551,1.0805880766170266,-0.62960507782478403,-0.77449123616123705,1.5654035352429811,-1.0427557978958377,0.69240378896096444,1.1827511937930288,0.7039941819119101,0.48489031246437031,-0.90834977631204927,-0.99422996607420433,1.3442780080047101,1.6604717687690804,0.85403110734210075,2.5325311945430844,0.20780619696811634,-0.33282065345659961,-0.7774161206584822,0.38265526343067213,0.56314575160194558,0.10444371236572704,1.785831709541768,1.5692933453064042,-0.62221333504900211,0.7948178841446929,-0.060945347658498697,1.1243445327487136,0.59546668926921109,0.50623159274455698,0.78288550647944899,-0.13670031683519621,0.66655615241886634,0.39638692676706211,1.8040378252682707,0.51042399876555677,-0.29033258529546979,1.0634040164999659,-1.4944131834215568,-1.3847893511506455,-1.7158773809550796,0.48542688963271685,-0.46763940685294403,0.024988962665348991,-0.12301530549931977,1.3398503530224961,1.51247102435125,-0.95826787575629102,1.9790151373313385,0.66674841866177792,-0.60366398728252368,0.95873259660658539,1.6240900186433,-0.90274199538170485,0.17514572716201116,2.8473437480403878,-0.78438995709720782,-0.14083509843233138,1.2557232054745142,0.4446554119858161,0.26069613446426082,-0.27436682186574768,-0.47675444259084943,0.074115310718293539,0.051169643853696024,-1.0125159842587728,-0.79503900593088817,0.01836921416015962,-1.6706125582786036,1.4517006461432229,-0.37685085586224759,-0.47706716125066373,0.56187409802651378,0.3951182749000387,-0.89660611040643368,-1.1028740318773955,-0.87381967963705542,-0.67571835412613179,-0.45023933357065793,0.8529321421045204,0.24233703473114207,-0.1189450797370204,0.11819001076838354,0.76488560798793748,0.69273946853945356,0.68122026149256498,-0.59602070578478683,-0.67997021439153393,-0.33943131659451603,1.0082973696752506,0.074422104523406585,-0.80844536209080542,0.34313375317849937,0.51447500253609357,1.225242818906972,1.6411174614792956,0.65979744483332947,2.2116184691522416,-0.16970993091479988,0.92912608642198447,-0.89075990506594316,-0.13190597638309287,-0.35804335488274042,-1.5060760048096056,-0.22948963215822912,0.38569501522853711,-0.65802994432193418,1.1909750278049476,0.11876175179065479,1.6059317474281312,-0.61113074037493864,0.027074413875034009,-1.5776225939538813,0.75756586946977666,2.0979386578421395,-0.1400552133482118,0.68989009641740207,-0.94688341898154382,0.35324512009721082,-1.4428889602312291,-1.5289081667244735,-0.14987185543612713,2.2999315818769221,-0.79343305952953358,1.1618672511034562,-0.99050076842127999,-0.83435410176967262,-2.9263471564590238,1.3623455927537906,1.8076709186425504,-1.6458025365400955,1.1608100601742619,-0.75476105238566193,1.0854653805577879,-0.56356335627607568,-0.56484267302753,1.2185792193503613,-2.155510887299219,1.0934128799102705,0.71873520374438737,-1.9002735235964285,-0.56109704531175053,0.97999476011822884,-0.036416206052064526,0.404633824073244,0.52466682237628903,0.64918582464837582,-1.2958503583226793,-0.1399725016513638,-1.3338822702274193,1.5862517178498627,0.35058910563704604,1.10227780979682,-0.9390737788140856,0.071386005658189144,1.3274089212491038,-1.5050472821051715,-0.83318641481173228,1.4234889316449644,-0.90998884813833769,2.1827152555299145,-0.69551346971750916,0.70405233707626158,-0.51436765001202334,0.47753808140038467,0.78453072957809411,-0.4420955336320147,0.072912097312228419,0.23253738564665571,-1.6236626529097824,1.6616622203371088,0.27511768218143173,-1.4219492375672169,1.531582488901863,1.6425578802894685,0.32634391872167412
-0.69204118708669216,0.35747896569209381,0.90266211806418128,-0.36621779871972121,0.44893072698397229,1.4027246313914739,2.7738978659219837,1.5001443100875249,-1.8141814101819542,0.95168604236480958,0.39395533849127379,-0.84181139377537018,-0.54858449242238028,0.68911374350436005,-0.50676229029727193,-0.43432250534592526,-1.3541946552630819,-1.1660924385833435,0.90138871816969435,1.1090911929739449,0.9926091025952587,0.27518143309332599,-1.5783531341606041,-0.085351970054916779,0.72591424383860592,0.38515504847249593,0.70717384352543544,0.36138301346830953,-1.0114023196196014,1.3635556440930816,0.027807654684835554,-1.2998258462299384,0.048759616771588889,-0.96932326077867359,0.74586960510445643,0.062885450666582812,1.1358464618218262,0.12350056677786707,0.16358496716864912,-0.49712030577219213,0.025394620646384362,-0.058552846692463967,-0.89957432862297804,0.096387394875365767,-0.87557062344896575,0.19024735049121563,0.18206821790267916,0.30636265391224116,1.7427793705613945,0.42580249182430496,-0.40944190312400824,0.27143818175181067,-0.13468611090762425,0.60606999663770678,-0.78705438439384234,-0.67260745428352875,1.445486869904625,-1.3685560611557841,0.084440950607502549,-0.819877049019193,-1.9174723997557963,0.55629589917508115,-1.6174515029723104,-0.66157261682566537,-0.24410664060651407,-0.40833802223088167,1.605479890277602,-1.1915405142568676,-1.4148751367936789,-0.7766151674660714,0.77497296901172574,1.7323623062024671,-0.1196720853804908,-0.58837388485801567,-0.019628581520957141,-0.46537007358044086,0.14630848591017701,0.60326478300487218,-0.33590120341449975,-1.1031614313983666,1.8797060387195625,2.2148139887955671,0.0087508191711377584,-1.3727996679648167,0.73579363999457348,0.50278208353924136,-1.3297980692878562,0.63008954189802857,1.2656322660685864,1.7337589733531606,-0.42695136616766349,1.3866023120858195,-1.6180463912378267,0.89871499148096046,-0.18863205989389903,0.46337444096952274,-0.38003695506515844,0.60540905576334436,-0.67327377739721406,-1.1594189382680655,-0.15368149579223384,1.1740296396987302,-0.48025813704428155,-0.97839916622812706,-1.1050929913330523,0.19291844260599583,-0.46460789362519328,0.42993969718476061,-0.70046259787109433,0.15698110203115234,0.80996589446093525,-1.0113122972390374,0.89109496100761476,-0.19002813442931496,-0.12523866988829185,0.28277809566713913,-0.57904044719552161,0.28213703623703523,1.1964717789961412,-0.011068360821483729,0.062151458735927312,0.17024822952140067,2.2694729230567026,-1.2534404757992126,0.19805691841327466,1.1546874518750285,-0.89312650390651571,0.81927150326666331,-1.1785596927823729,0.47679667032795808,0.99531205413810397,-1.1724721591756753,-2.5131575068584979,-1.003536083965215,-0.48716443817743965,-1.9987751497923312,-1.1810390841902449,-0.11977733065228129,0.035513967386124418,-1.6236602423822786,-0.38583890719354469,1.1028532049855051,-1.5127673865327416,2.5225963977697705,0.061956264589203114,-1.6166541834249766,-1.1309531975367042,-0.99599702025274195,0.46147673954173196,-0.6908189717124833,1.0404314644031101,-1.5866509101366677,2.4645606165012501,2.2713389142753164,-1.1296510846998016,-0.7485990476330836,-1.2569628029853144,-0.51281450495673475,1.1759174041297316,-0.043077391991826842,-1.2203094922212807,2.098734725321167,-0.52334128442871231,-0.6586801508104434,2.5558636726806254,-0.32902697713970869,2.0107461826728783,1.2178280356225695,-1.4924065562196005,0.11339619506833698,-0.49479334741249309,1.3018410253344364,-1.1336003305290328,-0.27833470647314262,-0.66744892740438277,-0.41976520571710568,-0.13845387821613936,1.1446131091415779,-0.29321834513236145,0.39091229415114959,2.1792250721003743,-0.43173676781051668,2.3205218757986388,-0.28935674961077745,0.24470846740757382,0.033194768077960082,1.6001391814498995,-0.70767997540364658,0.87990948609239517,-0.34918229759930147,1.6644015123694944,-0.11445740752949705,-0.62482976791187494,0.22335687117641015,0.62895092316894763,-1.5389934294731948,0.020057550219186551,0.34298920933861321,0.33089088847572012,-0.95891220241816655,-0.84158154204880531,0.35650379318069109,0.39543467478475824,1.3759825373680228,0.10042752221234279,-0.32412640088042871,-0.99833483941814172,-0.16623975744806593,-0.85155728641868289,0.52080015941308067,-0.24705545048827382,1.9127537363036065,0.7243656469265265,-0.096922591951283707,0.17665413753459344,0.6874684073749181,0.6010959899393743,0.13496045738306761,0.35561174062601175,0.36382593824864284,1.5777703227490971,0.29043005815544953,0.88968799443490187,1.1357272009172845,-2.2666517080417909,-1.3669497264512271,-0.49295620022107833,-0.47274788452297717,-1.5923027756341104,-1.2705069729126688,-1.323272134213203,1.1846389391565169,-0.83227292785282281,0.10778424384200114,2.067351493292978,-1.2932653478296365,-0.31921859443527256,0.42834723973127714,1.2711794318065093,-0.0083870435341539887,-0.44581951241910006,0.23803437761021898,-0.43436941742410606,-1.1142738019505485,0.79540691168416822,0.26304015499942024,-1.8663376248803265,-0.017365830202289389,0.3518827102538844,-0.99686728484328535,-0.67713394797286841,-1.3987451898802592,0.39534988201335158,-0.58596214326824347,-0.10146268672192765,1.0550322828528158,-1.2828240184371063,0.35655840862676813,-0.038525878718306754,-1.1180046277213203,0.83295709543471019,-0.92829220161182513,-0.025562491831572162,1.8657604922114825,-0.21847720300917292,0.21258679751895529,3.4762298894038035,0.50896074337101838,0.38859806802265034,-0.76593954112824292,0.68345643647424603,-0.66467750911313883,0.29975941345655732,0.7359918610235201,1.0635610834592719,-0.0014450495626449854,-1.7560910690160012,-1.2049190174125417,1.4832965010695949,-0.92265359234139732,-0.10389940492222571,1.6481038385435567,0.151700625443077,-1.7833266537220016,0.19930328298792258,1.3905516809914786,-0.48078386036739973,0.80838219185441862,-0.77961348211928305,1.0041301103397247,-0.13332012239705543,1.2558301088405328,0.036979068455283065,0.70105456206467431,0.32841868681506586,0.51212465363973347,-1.1452480646243381,-1.0578456337227393,-1.1705941527302188,-0.35427384212710267,-1.5109856389548748,-0.12684550686907176,0.16287093582545736,1.3423914811365611,2.2283773970176561,1.1534206119236539,-0.030471429580082726,0.10290145153800236,0.6957035206996488,-0.010404113234681439,-0.42408983693299462,-0.49117679269676229,-0.88852621473822446,-2.1906252671901512,-0.46190690922331928,-0.02986850601800297,0.8104500643614958,1.2604782545268149,0.93840888122448307,0.12832611599579616,1.8384728296785453,-1.2435080385487298,1.0977859463105748,0.17515540712246555,1.836358158069747,0.15298691650088553,0.015165189039737466,1.614899575395921,0.23178082451876264,-1.1923193375293708,-1.3784688023448393,-0.18976890137713534,-0.62781795650553196,0.91685636495320433,0.71076086701410957,1.1404809580900908,-1.0768697944247569,-0.61155997666993323,0.60068867483960919,0.36437623037565126,0.28088805356664459,0.74423675100376174,0.18357733454717295,-1.6634997882674791,0.049905772185413769,0.32909031758175994,1.6939042718041861,0.11294231432253034,0.8738015568150922,-1.1942625671184779,2.8780916910939367,-0.18169333504022242,0.97855597483457613,-1.1817123180288762,1.654946172004168,-0.99887265561568472,0.77690602714116042,-0.77406529684069281,-1.0861394983540844,2.7913182335725328,-0.8775592423345433,0.44031629543971668,0.31240768123884199,1.8587080669204195,-1.4306743790905907,0.50670937159245644,-1.8081678028104091,0.68911595411787108,-0.089881870702526664,2.5433623160797176,-3.3430388738112393,0.52031794641076268,-0.1233011372961364,1.1031663605859177,0.1768694238174256,0.10409679046766285,-0.18461140272607995,0.0060387446058676594,-0.90000960438428657,-2.9855158013454273,-0.038727022275231775,-0.32687687423971812,-1.5770922549334279,1.4273083070009798,0.19048281282196688,1.371527743366356,0.87404581243549606,1.2540645520681866,-0.01765198001117042,-0.19701306338935834,-1.1114163033392022,-2.084808203534918,-1.2984809021571762,1.2706934239396435,-0.74366360136075094,0.67426847137770207,-0.89862215579179849,0.31265518210979781,0.39129710840799287,0.4570361664918256,-0.45683937833001848,0.54498175073336907,0.46569942127667224,0.056649184661358362,-0.2969036338848316,-1.3082247763793908,-0.49945416496533995,-0.00049481946324561111,-0.6902157022364499,-1.8465161186988515,-0.84467903378741804,-1.9010790355857583,1.2146634686544138,-1.2095293334577697,-0.69268584331298266,0.43893238386034183,1.3203279514174959,1.2952811492634251,1.0047326833976722,-1.5062574511998741,0.32837876764943269,-0.20174241308575783,0.052819003197723723,1.5463946185630633,-0.23937003450048819,0.78596513686569736,-1.2068295658430492,-0.15084942196330736,0.62439294331855921,-0.83256779137361447,-0.22950735823079241,0.74269839139973814,-1.8740248702928672,-2.0405859953752858,-0.7986854268706749,-0.3369178512026238,1.0305885664723831,-0.54838728908017775,-0.8668423731065894,1.9642696103796813,-0.83488002894151014,1.3817677068052057,-1.1662282460155242,0.34459596453343333,0.1319999391525489,-0.62226431186086484,0.54588580762733918,-1.0346330879859962,-0.25914964987572064,1.3308884668879375,0.018737188460074983,0.50627377330857348,0.33332189010162461,-0.82097453176173441,0.33243206828005989,-1.190132713158929,1.0165905176358048,0.35155759477460141,-1.1531261733496236,0.031918317389507393,0.51386390531972748,-2.3500076603220337,0.99830681544546129,-1.2329869051972704,-0.81598449480442836,0.37685924968361822,-0.65658010890470964,-1.197363932985692,0.47904299758676117,-0.86027922468774842,-0.27050012837708298,-0.23210303138165858,0.46443777898332017,1.2115212666172817,-1.7714113078399176,0.070587988700487769,-1.3865428917190104,0.55431450718156516,1.5370301743084689,0.31235027700134221,-1.2418976893103439,0.63366266734905918,2.1377461391933661,-0.86974798176555601,0.78195231919199415,-1.5498092482685928,1.7198042047458251,-1.5237383221648699,2.0702921613619258,-0.043063551313629517,0.076390523693503035,0.28220139866790328,-2.0786389704726296,1.7690857098653903,0.026311236341882278,1.2627658370769765,1.0663944157665364,-2.4572670906691085,0.89970215796932884,-0.55236696275903308
