0.35834924911800764,-1.7292624294940779,0.8632376209513658,-0.79056525279041945,-0.30220060369664187,-0.21110378557501527,1.054909256897911,-0.11603096361384826,-0.57768281824322154,-0.89260854608030871,2.0583541700570569,0.42521405290092296,-0.8511127798120528,-1.3440012609484131,0.98883715595792832,1.0866401325524571,1.7534201404561256,-1.9302482136174697,0.43722633030837171,0.2096882467671177,1.7662552383000774,1.543572583076056,-0.90519194647037393,-1.4730862623823391,0.27032677507468456,-0.04411274440343501,0.053889481431280362,-0.68623615034829666,-0.197819715534159,1.2125031068635641,-0.57292157694531987,1.316247422282586,0.62785180960712428,-0.44079149059053702,0.23850815564591005,0.89941293291238433,-0.78256959238087387,0.22176120715864966,-0.45179614608655277,1.4148425431856271,0.34991628096587707,-0.95910984545006406,1.8399780427937868,-0.062837443647828312,0.29268542806714237,-0.72970368282676557,-1.8697918739342172,1.3672643105737596,-0.35997610470413099,0.11469233834184391,-0.29543796927445309,-1.3305626375060826,0.062589324121213596,1.3965156550415379,0.53933823417871896,0.19515935585008012,-1.1815716793453841,0.94832253474376005,1.7024340711496948,0.18123956145026288,-0.047711034423967097,-1.8962141605071974,2.4019530592507365,-0.23153166849645224,-0.84533098853198396,-1.5088121032560871,-1.462171260274721,-0.32473823341875607,-0.79061671241995768,-0.34734426943326646,0.8100214887414583,0.5905993053765366,-1.1467130056092993,0.081507455613084673,0.3022927956187883,0.23981075871147817,-0.67189138249408875,-0.96848028721829826,1.5128786047331224,0.5322762630845651,-0.089763309788319534,-2.2487915269813028,-1.7148145400956101,-0.75457946684450783,0.29740853414645108,-0.19665904888711372,0.050875831095601488,-0.044071760173811293,-0.24592134510571179,0.24633588502839943,-0.69884142226160462,-0.68104456543209313,0.78944178311532165,0.37431656617599079,-0.66058449527551388,-0.97038340096251918,1.4305879638887826,0.27835621630660823,2.0756762956400028,-0.0024676033386682133,-1.577324158295919,-1.8545761167166066,1.3647649395599459,-2.2629877798886948,-1.6158101238697236,-0.26531548746073119,0.7717272558809658,0.33833096706686289,1.5859131077801372,-0.5384786760190321,0.092301416404111408,-1.103924671902963,-0.4661639670170889,0.12993911425747912,-1.4943395562916719,-0.33548993892495743,-2.079909316380165,0.88287555933756212,-0.78577321927277344,-1.2021517074212891,0.64740915207955652,1.064697121184583,-2.1237872218469769,0.90442692338260045,-1.1923134100206243,-1.2166715223248317,-1.5268854903503357,-0.4142502859487488,1.970997267390534,0.75457713998568521,-1.0324175250885554,-0.67455452738706934,-0.041203742314793575,0.72022281363431528,-1.4109509746597013,0.80405837161006921,-0.44286573698104748,-0.51396695935359804,-1.3001105614195276,-2.1538536064809453,-0.83934483235434065,0.46437687036730713,-1.6906335788774904,-0.0016860764672571621,0.23676599653447641,0.14027662244625766,0.70378474714848993,0.16490474965972501,-0.12687321346781949,-0.35518839270746982,1.3750310077551466,0.58911993427116771,-0.54390808038627281,-0.63136872779339215,-0.56598677132905417,1.3093814944941971,-1.5225707153006813,1.260436454117259,-0.9617405602283986,-1.5589771281551532,-0.026874125138853247,-1.0786919231654202,-0.16778903198780129,0.80522709586471841,-1.3554035476812487,-1.4779389456852512,0.75657984630541208,-0.92486964815590889,0.17558998451592575,0.71627807098465879,1.3565929490353981,0.57821358146859991,0.68575489673083057,0.40442002646306424,0.51344965482255644,-0.095789281554924471,0.0071150992257484683,-0.39003340695439381,-0.7294517313303136,-0.61763042023691184,-0.15130585750021663,0.54097289838612117,1.012524553374696,0.76160933226171923,-0.80369845996414269,-1.8930453822388724,0.13699478025463874,0.17882812205861712,0.41574440399222751,-0.1268356040161088,0.02029171843253522,-0.45757541742406654,-1.4730467527819322,-0.96304773251565923,1.5991936868832288,-0.080591762105507336,0.094893981473368916,1.0601114474501643,-0.2986734293793134,2.7143953764852542,0.11975364193323128,-1.4582100823835875,-1.3930168951805646,2.0777862425429539,-0.21945953823858996,0.77842462142791369,-1.3271417460473514,-0.47356058583521321,-0.97589842759981305,0.61721146105373037,0.041782898657042419,0.18817946549130077,0.8503910226086433,-0.11451071770453022,1.2696915850110391,1.5153540205078997,1.3014480939789435,0.65874243451066394,0.11895030243760513,2.3064774719833441,-0.83537479187318198,0.6447254768401216,-1.5494531408562557,-1.7041426388853347,-0.010470586365165757,-0.010943752832320542,0.95725516622639784,0.53447353378971585,-0.21988215813835676,-0.39934536120978809,-0.47317156439538433,-0.84985263123242871,-0.30987264095534583,-0.040808298210485122,-0.34481442686281133,0.14201019552500738,1.1869917231513147,0.77607952498530264,-0.056015936944116163,-0.25012137636073017,-0.42561142228271293,-0.92083964989991884,-0.85273463191163401,2.2460375195356641,-1.2413065433864987,-1.333599087588814,0.0032644261440338551,0.40141379904010721,-0.52042249256055539,-0.20825574516047785,1.5729398859122687,2.2557750848824862,0.17982796480568097,0.40277407924457864,-0.98446106916967502,0.94359249647344301,0.66012308050762603,-2.0076445585459601,0.52850046213951829,-1.1565809876937039,-0.56717663522363015,0.54811888643393369,-0.76882143958149618,-1.2439956792773339,-0.0070945462317498721,-0.38756947183034113,-0.22848577564123979,-0.19619788757282536,1.1080293951121747,-0.082312491629567053,0.20822766589240813,0.94212853225559934,2.139400463802303,-0.14650329660963543,0.27576611964259834,0.82094470844385514,-1.3372935345958361,-0.051451678528939247,-0.6211036342998203,-0.20857500468420337,0.71450842219674404,-1.2559322678248042,-1.2611989987037078,-0.89066857385932618,-1.6616188964103329,-1.7730240637395485,-0.30809520351537806,2.2068582301207567,-0.6614807624158151,-0.26661331637710023,-0.810107504228891,1.0619388514147938,1.594811170407441,0.28274880842696221,0.51817511165134034,-1.1132647675240541,-0.50897258794708866,-0.42813968160995536,1.348321252261929,-1.0018106737312789,1.8470193772005112,-0.68060510173260802,0.021846711245421143,-1.0641712164599988,1.9088721172083194,1.8844034183230649,-0.057862172985917656,-0.48018727408811929,0.85597002824311497,1.1876651061351633,-0.98247544210371118,-0.72264054729431026,0.35626563877343559,0.67203963892497898,-1.2676951004754284,0.64625863364896652,0.00047525174212261986,-1.2753002462292495,0.56602040558372202,-0.45746037183172011,0.20432142205289408,-0.67112475847152653,-1.7750535217057315,-0.28654434556863628,0.63203265808248965,-0.087004637483555414,1.140328092833037,-0.22400935025213992,-2.3418193478590466,-0.55009820439517187,0.16804776308077374,0.80741371270863938,-1.3712277489255991,-0.91798739807279961,1.543336854628345,0.77004662653923994,-1.0245943734737697,1.0698059121969088,-0.92699969320617948,0.91748726103759126,-1.3030810045326668,-1.4790085756671576,-0.4296796303850004,-0.07268124868116807,-0.91030978475559399,1.3198042912373185,-0.93590431187210799,1.5217788777602075,1.7520525533140052,-0.095686987869713275,0.048684894710887078,-0.18232565237575593,0.5764089186896898,-0.68367177808623014,-0.9910755198618072,0.56307288595291571,-0.040890879509724608,0.24183438231955279,-0.21680600418047327,0.22357309909253592,-1.0705380874093993,0.6747352354510513,2.1723386224520747,-0.038694170959543167,-2.3432771620942856,-0.044964854674519668,-0.63794801394846901,0.63936105682937805,-0.23643608209320971,-0.34670332596091263,0.44555425266100007,-1.1106693909029284,1.4297567386409218,0.23840188118800409,0.5552854985109944,-0.12298206562240598,2.5006336717490587,-0.65738204808040801,-0.6928220200463715,1.3869668811478746,0.91990529155947076,-0.74646981195603368,-1.631736904271101,-1.9451430369857825,-0.76131529271178511,-0.039537433614498962,0.14546309783503125,-1.0238003586694455,-0.056788631693200073,-1.2733791401205323,-0.83986662929639377,0.46608920433764589,1.1260790952095305,0.55204546555780631,-0.22923807578680105,-0.035179316543064318,0.12744615648859564,-0.95960786986988322,-1.6019312313462262,-0.1031172878185017,0.9960051792671315,1.0220301625582389,0.0092887275962688538,-0.7344677927096871,-0.87180467269373962,-1.5508487452803716,-0.53872280551443985,-0.65005724392251063,0.53655714341756622,1.0721891435169968,-2.5388386037060346,0.45644542926295395,0.68944922351456628,-0.12306102246595044,-0.057641924142543453,1.1939392386724599,-0.90606695895899392,-1.1052695749949852,2.0023114701648628,-2.0600390873739629,-0.039670590817967345,2.6237848426508936,0.15060033568571876,0.21552097221263863,-1.0366519096928875,-0.31098027156927383,-1.3776953381304895,0.44559727384462883,-0.44231566774469566,-1.1183345211177929,-0.59419297917994918,-0.34085745145606833,-1.688575801761816,0.80670479329067335,0.41394420558460193,0.47723860315014205,-0.41726486546583369,-1.7379925244145622,-0.84473436110043498,0.46020558148437657,0.89623872295912854,-0.15543136177148151,0.14111023411784798,-0.21178011890495571,0.14060319422725823,1.0924324304050588,-0.25698156253972793,-1.4398761261761202,1.428425670190284,2.1459339976299541,-0.040496866862581991,0.241111525949675,0.56438006963564047,-0.65801742828793508,-0.1102115578124024,0.53901198785815008,1.6605836194906212,1.7178826155994005,-0.87112592782028586,-0.21420921721440447,0.21023881186561164,-0.032229527258691722,-1.2444578585131207,-0.75125526252127539,0.59764952997293397,0.72018609744420514,-0.21676032697233183,-0.55398771935131674,0.66070053610809076,0.63865958776922327,1.3624321907087775,-0.49456873718332528,-0.14862758414238605,0.67875782213330293,0.69481070918462395,-0.11863815914674385,-2.2960008172518318,0.59604989228860539,-0.2518998439028865,-0.65036109247023688,-0.45552441883564748,-1.1670858641987683,-0.087240423120360691,3.4698779096873915,-1.1846015433420616,-1.7190002027243134,0.24785596972461851,-0.49137747521328906,1.1698787702642959,1.5779942574915633,-0.60722592550906862,-0.3853674518762113,-0.10551357706043531,0.75928804379887727,-1.8432243571605063,-0.99565670820863261,0.1434111726291418,-0.66378135999011123,0.39994021766902244,1.8507797721411698
1.8214558314059752,-0.49037730230242005,0.44694438158410493,-1.5117249312372074,0.058909178573016446,0.81108955169625618,-0.46300549630666454,0.32589820407777537,0.70589610676586834,-0.47895719184090702,0.7449269034529955,1.9250994216980981,0.13435207028735416,-1.149823033942293,1.5930882011612362,-1.2367283737856689,-0.5942396781552548,-2.8514550917084409,-0.32795708429845072,-1.2020296827352139,-1.504621319529623,0.39884794521266581,0.18229519146246501,1.4991000229397338,0.1391533050233911,-1.1368553328517845,1.4448619616475991,-0.28571408754235611,0.78074619810457513,-1.6503437247387081,-0.72391749438865283,-1.2765918585273153,0.21418668108376296,-0.63309360094879619,-0.7900079620994388,0.020866987370413197,0.94506229573374212,-0.87377553260083685,1.0688337308101898,0.17747390030070354,1.061161072132879,1.0596825621912358,0.47837463357747484,-1.3250725654162359,-0.17121661650966022,0.0847334566133192,-1.2291446150644576,-1.7445162766412421,-0.089823239788058534,1.6634883730793952,0.64180730455853985,-0.71744430286761263,-1.1773376110493909,-0.8910905704722778,0.33637456237654495,-0.75554866328029768,-0.69894057168997448,0.98912742716677771,1.1290462306393154,-0.044382394331184766,-0.26315537691091467,-1.5938748784319174,-0.91220621039435068,0.92477046818640596,-0.84337732627688722,-0.034828431096420531,0.70319315027299112,-0.5416856791216369,-1.7135815094773919,-1.3707101468316558,-0.65725488573273039,-0.65453181955001194,-0.56925991898303596,0.37702970873698394,-1.3616599288201992,0.27276111067857839,0.77924080184649513,-0.082477534249172174,0.62487367661334514,-1.7706377733753795,-0.72803887971772974,0.55011101245110428,-0.26096334941457922,0.78600273398312426,-0.46424338625420319,1.3720769018587595,-0.79439588391832772,0.0020829241005988538,0.15132898771646183,0.4808612525827482,-1.3987447578487371,-0.96566949090517684,0.20416862625259052,-1.2591260685693506,-0.69139277673521926,-1.3680678057869773,-0.33686265569383678,-0.78747908909157016,0.084057408426563771,1.9275796118558945,-0.030071736071143728,0.92451815492015743,-0.93504227150237829,0.28878574150251873,-0.082292691211083291,-1.5939985801563137,0.021613542186531689,0.4317515678464523,0.17655899949519011,0.42360553810859841,-0.23472686745632554,0.19592332479388291,2.3022417113148106,-0.18924740841766335,-0.26231753004943792,-0.072686499343444663,-0.49940497905267334,1.3331982060855276,0.6809171257443708,0.85078895184083436,1.2490565920191097,0.94477147597089939,-0.34185889622760385,0.90455465220652176,1.7408841888646573,1.0588519048687299,0.34824527981445319,-1.1886338822665559,-0.95209585413850772,1.3924936434292994,-1.6604960616361517,-0.35927264433617401,-0.40868095503353113,0.1065984893232671,-0.50377382336229815,0.57520546487809088,-0.92114860205882321,-0.012066548919589054,-1.3685796936739478,0.098340292483853925,0.58966302452306174,0.19670044852581631,0.16850768258706797,0.46714814861238579,-1.6120909812631588,-0.70462053445562334,-0.81165373387395712,0.35243531411456874,-0.11569339583487417,0.8663777538052706,-1.5635237528181773,-0.84195850692038599,-0.548115199762646,1.9581803735517223,-0.85048616657029275,-0.77799833079752811,-0.79384658910868122,-1.7095163605823906,-0.71338193473863754,-1.0329952790093169,0.53274464011481226,1.3465908878835198,-0.67890389926799011,0.25497101665748007,1.9872830473167977,-0.73280559720744887,-0.41374356450893413,1.2281465079623928,0.24558851513647767,0.77646618724732219,-0.0047630535845986305,0.25172723144543102,1.3348120771505998,0.12749606542935044,0.6284168939551058,0.67250533741359997,0.76753764165799843,0.089827537223241397,1.0642563265292231,0.2299037952947271,0.014208631095560779,1.3850186637813793,-1.0309274280962841,-1.416243061097944,0.29700982533267856,0.63700472104226902,-1.0140136932943451,-0.24293184814158575,0.053397601959920535,-0.62004930212774778,1.43475241260493,-0.58155448213823979,0.81698370083986283,0.85874848157776529,-0.68421833000368781,1.7867508487441206,0.21444234935983572,-0.59138976159292733,-0.11020779957015138,0.75317530986710046,0.97797755127209418,-2.1254230864519292,0.47980176873959379,-1.7527226831563456,1.0477649879436572,-1.5724239170416898,0.34863521942203812,1.1479097134258232,-0.4162781015323806,0.73627475061001835,-0.13804819184726652,-1.2145125707970932,0.45326464542736106,0.018088291225378497,0.3637340975976282,-0.49656721569628043,0.55281533823706708,-0.65774608374838917,1.7052428912194613,-0.33186840929195421,-0.51228426498524304,1.685106403249061,-0.51246502880587574,-0.10090618001062832,-0.23033026650737395,0.098692407726803835,0.49312310717835345,0.47478287614181952,0.51171721838556972,-1.6223166741286201,-0.53315864260168155,-0.30801442647099964,0.85864940882661722,0.31235304256886842,1.3290980067808131,1.3174462743097299,1.9423334112650339,-0.85465698359867814,-0.26485943558361469,0.13979169481523029,-1.4361672768944798,-0.20917280844945041,0.099048869476935072,-1.2563642366116285,0.33564618574642702,-0.18609724432505806,0.21552053374384134,0.58839402336076374,-1.2598153495625921,-1.0155614240847761,-1.0523243630333938,1.1182863740436275,-1.3900603097188806,0.95777485058401035,-1.3893421940506974,-0.55778702054606955,0.75618098057916372,-0.3696049404298527,0.6744434369198794,-0.39001851091093503,0.64493032413258289,1.0980657024798122,-0.13969743765268922,-1.3724121333342092,-2.0922290334137426,0.071365399294750984,-1.7507317116171526,0.86901522765024442,0.67670862033275958,-0.81512821468061025,0.70883777825615213,-0.15613578360741678,-1.6226949606316881,-0.85549295308217299,0.28182129216035656,-0.79565104854316593,1.018975416819681,-1.7828857522530797,-0.43837778773885117,-0.15636671071761943,0.94009558275638005,0.92543430611249844,-0.46992854029177317,-1.1015306099169817,1.3831453076734002,-2.1219174548268396,-0.73914818840506957,-1.876056963128522,0.69959872520830713,-2.113418508463599,0.71541249921622763,0.035506154208605721,1.8101722994164646,-0.87335934394817749,-0.17034061975987677,0.92429542129251718,-1.185862927706548,-0.69921733592928892,0.69675460309073733,-0.37180934593196913,0.41655719606034208,-0.20605578777667047,0.63651865634471405,1.4348827570213318,0.088537565624552214,0.017184357532101863,1.0423337411465254,-0.2904309272151771,-0.42525916159689237,-0.80982656071912951,-0.64236566889274171,-0.092647192874489054,-0.32967854143172959,2.5904398283121313,0.26615272309972204,-0.83309663870815642,0.51035095397038288,-0.76365179618193113,0.63659629764100634,-0.0024642952828001835,0.79765856474852947,0.041066556936403924,0.4376889878402479,0.89977799638854128,-0.95384202852016531,-0.80509898770940358,0.96633104519628377,0.070317689955530879,-0.080611715815591234,-0.83919847463366837,-0.31218730775040515,-1.8000816762983276,1.4106307296408178,0.82185081199375065,-0.12806466213617995,0.15112106103700607,-1.4595691439489429,0.10268986236740268,0.17373451040566265,-1.1154220583593095,0.66904345999258119,0.12897947489685363,0.45353795535060931,-0.91017671843939629,-0.98610531873276253,0.60816445990746337,-0.58966798323525538,-0.0012930150451705351,-0.8132788782910404,0.14765645014447967,-0.51346234164005988,0.52943555347052895,0.1192768849626627,-0.39369574307549271,-1.6855257906014331,0.44933758471840257,-0.018467977404440547,-0.5787037627358167,-0.23507151087065481,0.30876534366347036,0.17228727093703741,0.63150755356825927,-0.81417698401413952,-0.90225116718788689,0.58401967619220541,0.89545467727284667,-0.50602222802620145,-0.1645657108284625,0.22727393860467177,-1.2301807724830376,0.6687276432339091,0.67589594515869356,0.43228533690593074,0.16432369112692019,0.21440700382878908,-1.8168018291219132,1.3425402095010408,1.1644401218176366,-0.30622239952394503,-2.266798283577006,-1.5975435439865229,-0.88159683020133939,0.75552334453510095,0.29450063992173586,-0.24452048653376876,0.034272642838392257,1.1480669429761299,-0.2813229251541764,0.58701281941533545,-0.66311268823068015,1.1857361565084343,0.8298432430733661,0.17263005127123113,1.548339909928319,0.59848394020467144,0.91326628618904282,1.7710681974261027,0.17766054720535454,-1.2919958858871896,0.99504196212568785,0.22497277642711258,1.133288031779272,-0.84907248453022499,-1.5635614094673944,-1.2583695022090762,0.97892576820930122,-0.48151323564775395,2.5384843962330361,0.89799155430553457,-1.1480838763395627,-0.40234026793818445,1.1795548031159397,3.2767913621459845,1.2782350314027049,-0.68923488735303062,1.9997001693971181,-0.80204020575968138,2.1325425991642919,-0.63967887555997749,-0.73994228061141554,-1.5607180659717508,-0.9902488086083121,-1.0836759713567536,-0.27663868903888511,-0.84864579667529705,1.0918315406354804,-0.32814481134280893,0.76601959126165364,1.1083125504321421,1.4685268183420925,-1.0804283032413347,-0.51222180661768668,0.053455817443374166,-0.67902085748012475,0.30166303882630935,-0.38238780836482594,0.039172458510669875,-1.133118405952259,-0.29216077068512342,-1.7091638505918132,-0.91423377708190712,-0.79386628292669559,2.403497910954155,-0.067093335825657963,-2.7429416801647699,2.1893416990708654,-0.22210401427459259,-0.4541724077814584,0.020132073385330559,-0.9003491430474645,2.164195507810398,0.11414693063758351,1.3460449536678087,0.65380310143647002,-1.1391725322125534,1.720909881083371,2.1027251571606769,2.235658362145144,2.2917781830059778,0.60485688817405958,0.20704275896017948,0.23635300087171884,0.64897576185548445,-0.7679027309207701,-3.094115505980195,0.71787111853288887,-0.36592591186976542,-1.5309984001881203,0.87891051792656139,0.69606814377567183,0.073878584162679159,-0.13533334118603815,0.15490126086369743,0.98217036197696073,-0.21522005416602155,0.66602750572800296,0.69502558640990053,1.14673805590864,0.079575209784566031,-1.6626764952016992,0.86291243239210569,0.2520071458413351,1.2128769794095151,0.89780713880190754,0.088588570953715917,0.74208233852152305,0.28861023834839677,0.3124008578767552,0.33660367733410401,0.58445318332663776,-0.19984658766493249,-1.119437674323714,-1.4384606907538549,0.74519822920981638,0.41213116473103317,0.31750300454808944,0.25433030927435818,-0.018414582461042165,0.72745085235433959,-0.19533095817640847
0.66890070092323672,1.9591031615890699,1.3228315093936458,-0.15004308467582739,1.3839251048424286,0.83630891155835385,-0.59103243172210518,1.4165274702374924,-1.0991362706197478,0.72180248280715587,-0.075911547835322529,1.0156246796066126,0.89808109268523295,0.18955158557881499,0.33795734438008262,0.79662456432984563,0.60420399014937165,0.87152997335858606,1.2590705889755416,-0.57489318453869431,-0.81789093052133899,0.35709867108108817,-0.00080313175555371248,0.85211920266012042,-2.6314699562492079,-0.57963523912234616,-0.34380187035352489,-0.084192496298175087,-0.053841714759868979,-0.26555023134706468,-0.13295572859227317,0.0059966047048713132,-0.2072671018963364,0.43941939149073533,-0.30736179884257081,-0.25962662168061607,2.4547089919891523,0.47631876260201245,0.27091935884329382,-0.27422496715362732,0.99806420975457433,1.231563197189862,0.47432513071095073,-0.086309234311108235,1.687864263606252,-1.5542732043070837,-1.8860638026798702,-1.3638285667280472,0.48453583924454635,0.17599344645087978,-0.29025547950475805,-0.42295674295293478,0.29128277514118833,-1.7247958356024584,1.230081511979257,-0.060222615185367825,0.88323478746235917,0.7766414632019516,0.13856632785523482,1.4109109669737057,-0.22823908561141826,-0.58581302889122144,1.0462848547612891,1.3836775437428268,-1.4784908671010566,-0.40126334482353659,0.30678623703965802,0.90423658638530102,-0.17017746925356325,-0.9036476799870955,-1.6888175889862787,-0.46501118569555033,-2.2590545677457912,-1.1140509487090904,0.857399090718449,1.8091770147138173,0.065573591281870056,0.05393896471937084,-2.0746199473486246,1.5281039890630956,-0.14566565327562198,0.85912633539276129,1.5454856779783206,-1.370119025661197,-2.3080607064811431,0.12945929661319142,0.61487586926810456,0.25932525456398836,0.82097622712667651,0.52928229711692654,0.37610688724924407,-0.93094389552037959,1.0535597050450698,-0.0034818761529781866,-1.2447455361377273,-0.45956991977395301,-1.3352719427498334,0.28712685703152785,-0.039526053097823505,-0.0012644281949324813,-0.38260116832650115,-0.08013639696287217,0.87573897452051386,-0.23644273159324203,0.67276583841727,-0.81806077459421378,0.80637320915238708,0.092123559904329869,0.6050431066909151,-0.087795382799334257,-1.2872045578382265,2.5634075082689955,0.077276554046013274,1.0769293993592148,-0.059125489893492277,1.4911445274548951,-0.01153454186479775,0.71791086472532539,-0.43706274149973989,0.084362996118837325,1.3046471465686751,1.575840593700448,-2.0422304731531473,-1.2721656681172118,0.14543068568633918,0.9478354092125153,-0.11771569023153508,1.0470785631519754,0.80029836364840912,-0.13831702744015534,-0.045034711028821547,-1.5056486106111868,-1.9286247968564076,-0.68655765130673263,1.2320761792914696,0.0036510931739956692,0.090745400017806913,1.4304274381065802,-1.6889950619259173,-1.2104217874962997,-1.4984927907887735,-0.15955798903226659,-1.6218074476953175,-2.4273066520891997,-0.51395486284750047,0.034952520518730733,0.01332238502761455,1.8045177882100536,-0.27108016144016539,-0.44993756763675163,1.549680982297764,-0.087851053492359568,-1.6962115969889917,1.3293725551678159,0.62162922764706607,0.27410782254306421,0.38141087547494218,1.2370076393085858,0.75835180444260908,-1.5278639384218451,0.26794059919636848,-0.39035034226609922,0.76036635857052293,0.78653133230487227,-1.1568558090415062,0.94336575418414581,0.017284854624012479,-0.39984937141796306,0.0032244894408379314,0.37269952565901482,1.4135205958021542,0.44574043925399581,-1.8183855784659155,-0.34966779424940719,0.42075624852546067,-1.5087308376826207,0.2373240855828414,0.013890620595434531,0.13765785735507741,0.97825859463382614,-0.56648089247443545,0.36605585202194418,0.64792713948433223,-1.3935973472961209,1.9877687416119405,-0.48394532142976115,-0.2225521536314598,1.2293662572926807,1.5472580288045004,1.9383888719145799,-1.6274834324168406,0.99050118016929056,0.30024863158920734,-0.4732501734001392,0.43720243704652106,0.085374757079628494,0.7161751394971031,0.91286134888309689,0.05865402585930285,-0.031394363935363746,1.6172753227841532,-1.2305633987559448,1.444946157499726,-0.25305414742660182,-0.3580092786473133,0.4699778283801887,0.31405923259436447,-1.1482127877025317,-1.3818043419597261,0.51197197634635083,-1.4342562608123286,1.4370769098151281,-0.53398473630597121,-0.35076752320631066,-1.7051566797013229,-0.65954447585620291,1.9114383554189722,1.531059318002902,0.90145243601673708,1.854031853824966,0.44318296702036952,0.025072026196301774,-0.32841006822684382,0.90757658644118899,1.0898940505370112,1.5177692447038535,0.085844727036639409,-0.37432112786257205,-0.80327822245723735,0.39698098996296338,0.18366308974296275,0.18494226886893589,-1.2189388551901934,0.17280054031260261,0.12517904786101972,-0.44574900520390381,-2.0621983755772031,-0.73454997508304709,0.39333014867871186,-1.9817192431410378,-1.2261010226781557,0.88582399679491408,0.64611282010987525,-0.31138373627505167,2.339735325613395,-1.0646728733662738,0.54006868529920382,-0.28751620412221973,-0.50310026448887246,1.1365778730615774,0.16328467352329376,1.5262470934666936,-1.1831592932583959,1.1872840161487772,1.6655222745643319,0.54083834879667203,2.0284883453949165,-0.53550756882845607,0.42148174932877164,0.38299567275882618,0.40602534887295316,-1.2072160208088236,0.7119395964377665,1.4173619012722698,-0.21045993540322921,-3.0949267134614895,-1.1682681962607857,-0.39202223252496887,0.82700800662886609,-1.2769755732700192,-0.57489530434026592,-1.223172159219468,-0.65578661013904282,0.6110828932781065,-1.0000994271016548,0.25370503389736737,-0.54371657076542301,-0.44515134877043644,0.21662276627330476,-1.7281627185354658,0.61306685229169666,-0.46226470782272205,0.33086871192279593,-0.60060308985035804,0.44798375050084133,-0.72651751140157594,-0.45577849728521019,0.12685968410741197,0.039005466555532546,-0.075481348842780349,0.81221490410020469,0.87417261051664408,1.8566306612839023,0.25586907300156825,1.045666218284413,0.92565661754959316,1.3053067436291814,-0.45731436454087021,-0.74258806831744939,0.6892116692832152,-0.47411087607012897,-2.2379286872393869,2.3474400601532999,0.23919634082367663,-0.66647823706980458,-0.50794554747453846,0.84095948333359816,2.1183933661166301,-0.1724561372258902,-0.030326917920480454,1.4513900119679122,0.19243024103192066,-0.72782407537074867,-0.84518435611643072,0.0080908431625252731,-0.57802074576878304,1.9624230776013691,-1.0834464567630888,-1.3029098325124855,-1.1362927250724402,-1.9413888998751401,-0.71615685653757721,0.65452085156474193,-0.71549376520705887,0.51982080655308116,1.5073268031054774,-0.83226933867600006,-0.76588789960936143,1.0500176775104761,0.99553452758051864,-0.78326906102139093,0.21892095020641322,1.2137983468069449,0.078966959474633003,1.8648951431990235,0.079486341540278005,-0.4648482626661205,-1.2673497541676313,0.5116168235672871,-0.75347909530044976,-0.97967091668583273,1.3880978086512141,0.42185818231336203,1.0795115000993907,0.33816687094271286,0.79786168180826578,0.32959800503404285,1.3804198555557567,0.050926258628096598,-0.090316260152971575,-1.3373396022791417,0.087443783391063262,0.29774826834026369,0.056740877959398632,2.308412568679636,-0.50654708489450206,0.17199782460804997,2.0454760974980974,-0.014830975120954238,0.010652069413267403,-0.50668170910122068,1.0034129749774849,-1.2505636817825987,-0.028426905037779237,0.733892204945922,-0.90613600509206604,1.05410617499816,-1.0771947705595677,-0.094685608139429764,1.0807079850589665,-0.00010611605769545426,-0.75904821294751057,-1.4829291584839857,1.7468019691442382,0.23359864815714132,-0.16347069184655633,-0.784794609007473,-0.70306529437294785,-2.395494783046161,0.72837487655089939,1.0076680111840512,0.20111524077769857,0.71042148506874747,-0.35034941365638778,0.88875651535690658,0.39273446937436668,1.3877755882191098,0.055656159518152601,-0.04086527553699637,0.60270189782070449,0.17145963746122847,0.08450477519318314,1.5485280053815074,0.53383685636684419,-0.46005365562281531,-0.35791057769702678,-0.62412793414004786,-0.021704385692571639,-0.12578283293158279,1.3548510050387517,1.2727555433081166,0.6944665976294041,0.4828877948117074,0.80442184343020273,-0.58758989751401591,-1.6809133426034941,0.17354820570077933,0.9469037642821504,0.1493837697314131,0.15419934170685651,-0.24456560368824282,0.36765077765371107,-0.4876611160853917,-0.69431971063787035,0.39241020561262552,-0.7556623620313947,-1.452232776094825,-0.17426505829453415,-0.2576818005266488,-0.24511320773892331,-0.07383403057008589,-0.57277736662326784,0.57987441694513442,-0.53047151526923986,0.65424411503873015,1.1166933068571439,-1.111579345870507,0.95829564200572936,-0.15388367009041712,0.806008191459201,0.22273705672692926,0.44566021283218565,-0.47462256329917013,-1.0645026665794648,0.56552886129738056,0.036019338800265185,-1.1339393065366232,-0.64508075723396452,0.066323389347275316,0.59575685449922788,0.83162163520020549,2.5470794677415114,-0.75432414108478163,0.20884962878666052,-0.74685378411601255,0.85529343642999889,-0.83071069471379289,-1.2932718656002846,2.3058554809735763,1.0652545889937854,-1.6174839844409588,0.18377599464842709,1.1616952434802295,-0.72755182301183396,0.080769479934882898,-1.3879275181216961,-1.2412948279251546,0.072162162817522205,1.0720535718611075,-1.0944158241172002,0.033129961293671871,0.29992711549668005,0.16051248680618657,0.20925274178463724,0.70807514487247414,0.17808439966576603,-0.60526019317377544,-0.9381405360639189,-0.72117772765722432,-1.6601867223503437,1.073766951755613,1.2859321951351892,0.76537267271193732,-0.99755496968483803,-0.13729061560904321,-0.81824166065271375,-0.14170756971769799,0.046357277073891909,1.7385354206341357,0.088693337322533525,-0.44892778148489265,0.71341678692200494,-0.69539752168645763,-0.44280989937546467,-0.42573228383937711,0.79278223988506413,-0.12852159640020425,-1.9415126805591501,-0.066025855211811216,-1.008980782805317,-0.21259550936102892,-1.9237752793345131,-0.69376491609975655,0.75111990900671743,1.4354685210460467,1.5186597999166895,0.50030060206640437,1.2952159794822267,0.33280585748136299,-0.5316739468920153
1.4334322567617184,-0.50867800860254919,-1.405108539203521,0.44202531669372525,-0.44148290102637372,-1.108295069660743,-1.2050121266992793,0.14211401440049407,0.84922294276581134,-0.92346182350397699,-0.58161004469148858,-0.87032488958731102,-0.15089954898904878,0.62503141274810747,0.5450776980265738,0.74098479821335328,0.043309385482258801,0.97110959605870117,-0.41893422136317882,0.87982334733357115,0.41240443287632372,0.72702536985406285,1.59611168751984,-0.38917291599128967,2.2812783811948143,-2.452867237698535,-0.7850728034478468,-0.92476531813343565,-0.54336180360898445,0.22704092579155388,-0.86784693867727924,-0.54152568608495444,-1.2256339630006972,0.15076705161508366,1.6278697882036777,-1.0253040021358186,0.7119101482234137,0.37278419007258107,1.5014388251508597,-1.9721750309356192,-0.096575509947718005,0.074351071304783481,0.25997306761636663,-0.53852214251550967,-0.47280613463028492,1.028278999047463,-1.1894981861093024,-0.20949600541599958,-0.6107097417964118,0.15525755180921016,-1.7239201695973103,-1.1189504452717469,1.2921682347768402,0.12065326527862449,0.011564809281885954,1.8241361290146743,0.5043076039357427,1.3131301463967702,-0.14566146777870259,-0.017160995678914069,-1.3500747614982662,-0.16475523995431982,0.82030526927774627,0.018401119095231341,-0.90909569503619947,1.7443672510829284,0.57822128396421657,1.7395944292020853,-0.35267846855612184,1.0678871267589347,-1.9857465581592313,0.17884028607723695,-0.25522900538045562,0.10044403928218425,-0.78116216011555206,0.4308617698806424,0.34300410320009989,2.3994243364055947,-0.63813317359490707,-0.67635938969146348,-1.1085588898776424,-0.077733569530095512,-0.23169287425540555,-1.3058168571452833,0.36686666279026336,-0.29855729421139821,-0.47778813335694598,-1.7196792715635294,-0.094646766339071167,-1.1223272305754473,-0.24809721192321843,-1.3779050245506792,-0.75373453839370874,-1.3612969167277966,-1.7903103341762736,0.24640856024239732,0.96941647303376632,-1.1389756496301233,-0.06352552440989867,-0.027085545207840279,0.94492356950099232,-0.089586455939184448,-0.50748242035915814,1.6597698028795969,-0.694862478378796,0.37334180304279446,0.38492759996811293,-0.13453830904082767,0.39759887779593983,0.78566416727884469,1.1906854599853862,0.078417866608962522,-1.3090802663733649,-1.2399862169201672,0.067143350980475858,-1.0138196401099726,0.25302840946656002,-1.1473651548854567,-2.2705990869736699,0.068311105490953414,2.2037274111062088,1.9071764904647985,0.95298326013580847,-0.50622968063633722,-0.12423115339739525,-0.28197640808117125,-1.5122418285645349,0.16480788381087569,-2.1777491201390884,0.65704843477279806,1.4006987284997312,0.017650340852686734,-0.98421828858043581,-0.27451850363855157,-1.1397831952473705,-0.10254669009661509,1.0995783162630042,-0.63113799288028782,0.38472155541352288,2.2885408113075583,-0.42454848081266522,0.046071198612783297,1.1751091823648314,1.133597285434113,-1.5473880915814788,-0.10928796576751908,-2.7336582020922622,-0.23791786427427619,-1.9297128073926522,-0.0087484269567364506,-1.2957643696960943,0.63775954182407391,1.3618981748989909,-0.83551114024843143,-0.9354193422572874,-1.0360679833905515,-0.50969377139515326,1.6220373662997614,0.36463199138088598,-1.2733163726536558,0.87785079772548269,-1.656581894967704,0.98041300441840695,-2.7969926145683091,0.42438459174969406,-0.045518978889582347,-0.57118852870646686,-0.83364978004865131,0.10186536122057899,2.051697667080532,0.72789867457098112,-2.1623381463297311,2.7911051738551196,0.58526992339014305,-2.1719831290399818,-0.97348789143251335,-0.14972352481512205,0.70540036591898603,-1.3822532752076515,1.8288678806190546,1.1731669653698116,-0.19693610678387755,-0.31145744441268391,-1.1874953038326475,1.2668138657497219,1.0145270673713611,-0.58811023607908042,1.3063355947171988,0.17901354403114161,0.29001561197143039,0.53079098783963707,-0.9865401197236805,0.65665386322645181,1.5910109070363343,-1.0221719485711467,-1.2165118075337558,0.13487679013809306,1.5947513793209964,0.8279449763858141,-0.94523315158249099,-0.67436265314619981,-1.3135970000149462,-1.0413886391175167,0.82675670250995781,0.41178444878437204,-1.1172866261413592,-1.7064291389366917,-0.1854817906575241,-2.0175724260789507,-2.2439063457282158,0.84315096018266167,-0.60089382552759818,-1.3660727139056636,-0.71798995893092321,-1.6357809027838697,-0.20736242060342233,1.1603559046272873,-1.1200869450806712,0.19738781503512418,0.22353285792444022,-0.046028343643868999,-0.20027554697591049,-0.83835426923967882,-0.16349621346470225,1.3770048055493687,2.4735839855856048,0.0057186257068306198,-1.4878704365639912,0.29982180024410621,-1.2481799087591152,-1.6173163481502677,1.2363902594945022,0.77766774020745466,0.36674891894106354,0.75847458085760366,-2.2414285118043566,-0.68788421926750021,-0.73550821075507145,-0.61834619769726884,0.30081338092035159,-0.69214246290165438,-1.1888203025401787,0.30686315344566034,0.26336806487371989,-1.1446740918261809,0.4582432809372427,0.63524840269524152,-0.95987395532791842,-0.49570827118332544,0.17310261480375932,0.18064588934378367,2.1623753650782249,0.416003832308736,-0.52125653913499448,0.66346664805839772,0.9466625119849541,-0.25840203651566462,0.44050972668984295,-0.60452904508520355,-1.1713267369142701,-1.2946670337360668,0.80734328124944799,-0.37130624266694445,-0.3048712282877255,0.18882658703530814,0.55712039331894669,-0.59452811160833929,-1.5993389787594383,0.80632086283472126,0.37663109013002977,-0.088251590529534019,-0.383302908872729,-0.78139815321004635,0.069275205874237106,1.2827500672765502,-0.63070549623498651,0.30424754390451081,1.4411385274056019,-0.74535884906296956,0.077522258169101285,-0.67681396831965002,-0.39270408367457799,0.41219880899744543,-0.73941820974709715,-3.1694196680974409,-1.1151801584845815,2.1517476584814821,0.77570257611733495,0.26666604552073048,-0.97853378202538288,0.013514890978143752,0.65677142073897687,-0.71387126851779625,0.33075475497212176,1.0464434420441995,-0.50197235315011679,-0.7275634694241162,0.40944475063706737,-0.93990905911169675,-1.1684807457870066,-0.15428754707481579,-0.18143121250205102,-1.6504080180645342,0.82369184598497147,0.34273038854270649,1.5400976019016239,0.56845244058167621,2.2596619955561459,-0.97410156714207108,-1.0794921451776891,0.4627639517493996,0.3466472936458021,-2.3623449835113068,-1.5302968424366699,-0.21236466897435397,-1.1970435027693778,-0.28413487886339633,1.3731692121551609,-0.25970485551043954,-0.72969167732366313,-2.1312557022037728,0.16592038815264917,1.1767287607122292,-0.0036664481003871848,-1.414600475542263,1.7169648146398933,0.23113747361878328,-2.204380541641366,-0.67107730986014402,-0.21761425246254179,-0.13660558696906727,1.0995378460890552,-1.7345342198073903,-0.87186094712117879,-1.0554830583277957,-0.88754810229674552,0.28147233520467457,0.69005526624729818,-2.2859386059304745,-0.21262744594219937,0.67498852593854153,-1.2186938223646868,-0.91125406293820332,-0.52300483664761466,1.2922914816579893,0.050629093971474498,0.50445443270142643,0.67539190431816454,1.8098082644027043,-0.42216463851140068,-0.13643125101645143,-1.2823210341106586,-0.63008364808266693,0.026983201405862349,1.6256105720298804,0.61300195149404912,0.93994445904492507,-2.0616182035400512,0.25943176744311885,0.67281306312749189,0.18759679067432913,1.3322388019569926,-0.9147767918654709,1.1494382260921712,2.4958630426245842,0.37179282089571364,0.57868910990372857,-0.8385357742599383,0.59449027185468384,1.9625514356783329,0.7685137115488343,0.061899161996331241,-0.72194217699554075,1.4032025543935398,0.23074880182067276,0.92085670933982011,-0.36889237757863336,0.051932878469878763,-0.65084830515986147,-0.45900315749530257,-0.15075089126898655,0.32079358668682784,0.95945785875917311,-0.3074776323089522,-0.72504410045655709,-3.0445144070241676,0.27758614550189326,0.77296908164441114,-0.16594066103776647,0.56784479499001039,0.24420702677048109,-0.066564390372155322,1.6893027725026211,1.4249059045644503,-2.0948301994599352,-0.65985083806731271,0.59263598866059408,-0.72868085916607628,-1.2247149575588236,-1.3325888399881416,-3.1927756321447398,0.95270234709579249,-1.7679785911973012,0.2720232380936517,0.29139922290915765,0.74639020524546007,0.25443300570008764,-0.64293146646617372,0.059815311136522956,-1.1900910653558239,-0.22326702408317742,0.78120137012486879,1.0692645735412478,0.56494598483249792,-0.7202442625014831,0.58959457948380622,-1.6537681902481494,-0.47841901127450842,-1.6516274557662483,-0.73670962663491879,-1.0156677805874896,0.39861456261769779,-0.28005058133076588,-0.054623918548103861,-0.86967586915895756,0.30646083349266234,-1.3200338545524097,-0.25434929815382634,0.18902530242816454,-2.7085122969973714,0.037958281615637399,0.15042472305188195,-0.24300208141174034,2.2003453650958114,1.2584064563454804,-1.5671156244066426,0.5553448529082492,-0.49596448198127535,-0.86111902052714229,1.3929837264315705,-1.2238135957915575,1.6473808972409136,-0.44981845637771822,0.21244674938381039,0.35252685314117005,1.0540692582558375,1.0618896169455776,-0.64827869646967895,1.0356657495815269,1.2569767395608364,-0.28149312260326553,-0.30494234463755632,-0.11959317026319562,0.17608651099825245,-0.36085743028483985,0.68785295776883715,-1.2904686136302399,0.62849914422521702,-0.75527716147247737,0.20191762793808946,-3.0779922767921661,-0.37793379932291066,0.75354364952491215,-0.6465610791498041,0.72533297099886951,-0.58621611291363651,-1.28110123441546,-0.1668244325724802,1.4468385526096956,0.26372363384770792,-0.32429514816890881,-2.2543612425821649,1.5023424256682882,-1.3275542202572423,-1.6391364992761255,-1.4624653927797218,-0.26330712604853979,1.473144495416042,1.2438330328640641,0.39641876675092763,0.87512328919216442,0.1332589339929805,-0.94183326960739633,0.84135914374421483,-0.95506440726120023,0.58041890089934411,-1.3913372391585899,1.6256650993576223,-0.037456578125038338,1.4811466010237586,-0.85432859776663905,0.84137775695672801,0.60113976855584239,-1.1593474179498142,-0.97684206748052826,-0.74073944613296716,1.7983674738291959,0.057060149289866739,0.7854157778976063,1.2447579683407006
0.32089323348471732,1.5547182680584477,-0.26916083954774139,0.61075701731748722,0.18718350691813768,-0.26723909823926933,-1.1854759689629348,1.2119992589512079,-1.2310097253914432,0.35323901230551863,0.20170657384430324,-0.19731796011100125,-0.54855705526071463,1.4277358692587618,-0.77451418736834698,0.37665828102186938,1.1888362099280172,0.24018019839816504,-0.69143412942156335,0.076027977350555082,-0.54759749878343045,-0.802406626450057,1.9842819695135578,0.5666535519541529,-1.1902875775453663,0.51710939176563209,0.55837747074932698,2.1399654616035182,0.41193850554490496,0.72508382435058238,0.35412364038070682,0.14364038994869852,1.9684015701293747,0.0078824755335250608,-0.27530128752714483,1.5889841738527004,0.29168968946276652,-0.30703413055642009,-0.8716032232453057,-0.023414336125892343,0.074177502766294881,-0.22594770680732348,0.47795168062318849,1.4559721391116742,-0.83055136396415541,1.342883386922932,0.034452361790520317,-0.35200892919725429,0.52427867166605402,-1.7736527733401199,-1.3997475090435061,-3.0009382326518352,-0.33916879032246683,-1.6619776963478163,-1.7368353946492712,0.56857803660364492,0.28967601363017587,-0.84698148173598586,0.57876965676358949,1.3488020627835551,1.162325424679056,1.0447665685532006,0.27500722779216713,-1.1089590604071302,0.2312743804628217,-1.8131077356299843,0.67465669685959218,1.3136234696789353,0.30455883011993046,1.0949017341720033,-0.088561824127910152,-0.074776019663230997,-0.96872161950906055,-0.44068823795403755,-0.43597307422516246,-0.98992272725876107,1.3080904799347954,0.030360142987583664,-0.77595901044224647,0.74216791667984772,0.31499330061526482,0.82463522216526963,-0.62254498758498789,-0.56355274256274035,-1.2614287991242643,1.2126406765630273,0.28254025687032258,-2.9056264461949177,1.2810187587603024,0.89760140421812251,0.22602111438363523,0.56479503776734608,1.1730773021031435,-0.97428185390944955,0.59835554872313546,0.90014913404565189,-0.50757844982599198,-0.40366925125651204,-0.88175406651718524,2.068739569611187,1.2883395183598327,0.12157742057871454,0.28639896198128678,-2.1374608105316897,-0.76254329225931061,-1.2541552432372038,0.60176038327710968,-0.6639838853535478,-0.93280816000227451,-0.0032373001031948735,-0.46068838921633654,1.7636518930303726,-0.36134142719485463,0.41415889496874542,2.2590210745934005,0.73672707352276845,-0.84468147636219448,-1.3507388273531233,-0.95884201784095202,0.988771245008781,-0.0092740803508707375,-0.84477571908094751,0.13822749388332753,0.47035582573205781,-0.80289121975403577,-1.1777277937379804,-1.8967623151131423,1.982927995496621,0.29827503751895701,-0.46502656545250948,-1.1728840155938669,-0.99611904794063943,-1.286298565664064,0.49990105028667542,0.96449450742347542,1.3691196325058401,-0.49847379943179893,0.7644686180055319,-0.27844414992944144,-0.42033235478597852,0.42556364398920499,-0.75630106382162976,0.24264910553380786,-0.58221063333526968,0.25268687294613135,-0.6186713378447678,-0.57353876229388301,-1.0633882333491662,-0.42943256025109106,0.58105381491453412,1.2897795800756067,-0.99854849173599991,-1.2641532755588052,-2.5579526474035066,0.61991192338216961,2.0145219614183922,-0.086124690968704259,-0.39290319788540295,-0.48899022904548439,-0.099914519930895493,-0.88284338614718294,1.0772390990222509,-0.46623342730929562,0.29969737250973083,-0.48568128782557363,1.3430393312887374,-1.3919589686959342,0.52721762605863087,1.6706817408875072,-0.84602837639371853,1.42354007973527,1.2883790206704104,-0.62095906917548516,-0.026945203042028843,-0.87305121771583805,0.87673053324591599,-1.4286927724427068,-0.73417149731194453,0.91138136642804746,0.45806873156973693,-0.76840906570152567,1.2228977719540322,-0.5930007326079697,-0.63285778399976222,-0.22736008462258631,-0.25168620261279928,-0.45406188906415107,-0.74130896400812596,-0.16784090181424471,-1.2666332939571836,0.095899181355093094,-1.4036114278639851,0.38529414634350095,-0.091029511041717651,0.10796987637868753,0.61065970937569936,0.031039283170614145,-0.041164927766595277,-0.90549017105933383,-1.1930672700624456,1.6087379137189912,-0.92599465767465128,-0.57325945009399071,-1.0378801705139822,0.55949187955390756,-0.33621749883454455,-1.1898126126641313,-0.93497400067348535,2.0441928561794205,0.24566089566490706,0.10927501136490234,1.2002825351676056,-1.1660476776870874,-0.36730222849199701,-1.1616455781123765,0.0026010190505364704,0.75393228347878205,-0.92161002864025188,-0.15102875386399933,0.033642234607337736,-0.083951255811309938,-1.3471731780080958,-1.3268899833677725,1.0625791333822012,1.3507299580570333,-0.54277179975151135,-1.2639092150288294,-0.072720339789517835,-1.4663234563877223,1.0102525930795978,-0.79112535872845879,1.017363207142467,-0.015287616831714328,-0.38410185359168708,-0.14923758802771106,1.4275224778290707,-0.38494627695853956,0.14099587658008483,-0.55109401853923212,0.69676324632413034,-0.82439531489553297,0.0301548464475625,0.91775028802047531,-0.19845965525467837,-0.02370158599051931,-0.18738088264817326,0.51220563081875659,-0.31379892324652175,0.057949896552280229,-1.3048502230936292,1.8541300082459118,-0.17489752172746892,0.18425615051923294,1.3615355258813433,0.81159973084838533,-0.81771414502001338,0.5493852736450755,0.65360809687870103,-0.60407464889969986,0.20049673944257529,0.5094490102475917,2.48095223210691,-0.43339870497332827,0.11862015999262177,0.19476152095431615,0.48773896190246063,-0.73569621247414663,0.14362048697935606,-0.5590864685571687,-0.30880495345362596,1.7417695829438617,2.8668048318329582,0.31051924844103551,0.15495253710759679,0.27192738044562159,0.73579461790873779,-0.50746578736419823,-1.0991803652050576,1.3444829616682836,-0.087893989180598958,0.86386561060955747,-0.49874961688198022,-0.54501953570973594,0.6519512143188928,0.8744245072024599,0.46028006321399112,-0.9309934613549472,0.09126262624237122,2.1652003778749669,1.281220570189705,-0.74142606875324057,-0.72840931534936271,1.1022728614749047,0.58778960059537844,0.36368173338041304,0.30362628570402622,-1.7149205903101199,-0.026511419082346506,-0.10086058791058825,-0.17976093850131972,-0.73049116834524352,-1.2016216571275251,0.45359099820283849,-0.3385229343342559,0.82168175393963327,-0.89919273101922048,0.42361430011784817,0.58928105548155918,-0.9021311921292926,-0.26963464582932983,1.1138000157402412,1.0438582535107817,-0.36491935091494343,-0.35689739979038104,-0.72739752958523163,-0.76165871789871387,1.1299977220040855,-0.54604920371357557,0.77677897590154288,-0.3774689389121178,-1.2327637190908183,0.39891345808555823,-0.61062807674046338,-1.1619006179487676,-1.25818804067598,1.2890770269900347,-0.31105634643262403,0.55286243245035582,0.48608377295115018,0.1521379881318943,-0.0026526846219106217,-0.66633585136306184,-1.041058693693188,0.70652015420108605,0.2052799058887462,-1.8831985135154103,-1.5090350003967141,2.1576567609112081,0.15015946936530628,-0.54595096036562085,1.1342471461162744,1.6888348158669431,-0.75067685594904809,-0.34942865839136245,0.42030561992429044,-0.14185506982020524,-1.5840976449493709,-1.279457251160055,0.6201759773921478,0.099841983883938418,2.1699389848046211,2.0425525171983443,-0.84782186459704079,-0.15403847607041893,-0.21288592261015332,-0.94835928034616779,0.3691442429405718,1.6867563214929286,-0.9653002525402673,0.96424633776747026,1.3681833649784947,0.70149038344680748,-0.27593871296975264,0.46811324838671675,-0.20224676394775096,0.0036263173379654685,1.9893324131869645,-0.70671268603211157,0.65365533692090128,-0.99738309979253226,0.10017435548351268,0.53535537224713448,0.065635963928701746,-0.18873205367569748,-1.8070840923129901,0.086075133041068133,0.45648726723173721,-0.21971383745234457,-0.86611272635988423,0.29960598913292236,1.9252633331977207,-0.40306698306006133,-1.388350598175963,1.34700432544796,2.020552883206634,0.05777008879075278,0.12394544545859458,0.14558338548188288,0.019550603005684394,-0.29651162736902603,-0.6836156791003617,0.11903855025225615,-0.91947989766338489,-1.1757195524526163,0.57736231610105959,-2.4490830323580344,-1.5638749450655915,-0.75067403516824771,-1.2531139538873828,-2.0987416648954955,-0.62090317660111516,-0.091055268796296107,-0.74231417491146712,-0.0076436113451462361,0.77493827358974965,-1.6457233216514946,0.80905824787684621,0.72857044676030847,0.72405216416856077,0.22615406769258958,-1.0189796252003795,0.36478331485060245,0.19508797597209163,0.30817582751797057,0.79433063540184856,0.23013122516232448,1.2339957249922169,-1.1004055876328247,1.6654480248440775,0.16384807416222208,-1.3627466152953527,1.7350364835269882,-0.17312298343226354,1.0514985303647804,0.32642161159557942,-0.64996257486636866,0.62435170143057195,0.69606658641297281,0.028331073539166817,0.8877576489862099,-1.4231201581813717,-0.24575567279148572,-0.75004776553420183,0.30883044889974481,-1.5287812445213009,-1.3533929989197209,0.88011514016333536,-0.59216997107849456,-0.015362617513668837,1.197467531268251,1.2598873944382127,0.99530008283762372,-0.41986517667786583,-1.1685189020331079,-1.6621966656781804,-0.95266044946181816,0.94038000505303276,0.61173398815585422,-0.69683923973518069,-1.3089914832663998,-1.2710186501108696,0.193925895525554,0.79144748298784384,0.60806846153819216,-0.33513073054605641,0.62233128730653986,-0.45468874546171645,0.47475682186319956,-0.58722122194561532,-0.29250909661601754,-1.0301910710829505,0.095471580622336419,0.58691672798783767,-2.9064100542509572,-2.1199512217515424,0.091777911642712165,0.81097869072782747,0.51240690085273854,0.27619079135947772,-0.55079927505430393,-1.6778017268260828,1.4184140139367047,-1.2338439430556989,-0.56415259153391428,-0.026151610541840318,2.4580783552250285,0.65724425032656131,-0.44242927249066505,-0.99665190446219942,0.40755048182793685,0.75220042703576306,-1.1625176804944117,0.48979181857755827,0.04373845800351836,-1.3143502091152583,1.3863854286872366,-1.4599032755668715,0.90430600612734979,0.08894609677008869,-0.5677268415233836,4.1279837530070882,-0.098268111962909535,-1.5155203926508793,1.3064278043375979,0.3697874811793308,-1.6159271223638638,-0.0013535644661274956,-0.72475098423713613,0.0048400745875425239,0.43258394742908457
0.97476777258326719,-0.48379621609099838,1.1213824471821943,-0.82955042625028885,-2.0711934472132252,0.80572947541952389,-0.53269196157915832,-1.5581421919216936,0.37038442180695685,-0.88919840649510218,1.3687487926396475,0.99558248710672703,1.7600234784801509,-0.90518273188925624,0.05699566456916829,-1.314683010147998,-1.4523805154912213,-0.61472929554964528,-0.24875522210044546,-0.45840193014917768,1.0926374270274142,-0.17105793800139854,1.1267754909472616,-0.68924397854271313,1.9550363359061247,-0.8349986789878302,0.15652498497425471,1.1939928080632858,-0.073171990546140098,-1.4005092324894006,-0.060005038175754158,-1.2291027810753401,0.75111140545094046,-1.4160436744486722,0.8023846626447807,1.8798836347995675,0.0063512784626028936,-0.00096988056498872129,0.81996927722512114,-0.3149025803146619,0.15179501552938887,1.9432088938798373,0.046924529061448603,0.32508570908085788,-0.92319889835769353,1.2912216830764711,0.49993775757080577,-0.10935504211958995,-0.75676552507205197,-0.44786776486105884,-2.2110491510800618,-1.0532290038928998,1.0991643248657086,-2.169312987022189,-0.50238446858456032,-0.26980345355972774,-0.78230783042483254,0.11855704304871381,0.66943758048269353,1.3225830459744976,0.73957560059467931,-0.092133448164087153,-0.83176651501285759,-0.43360074123868031,2.5876167014320175,0.81050196925787765,1.0519125185979887,-0.63075256391169787,1.0122693839066896,-2.5390889615780226,0.075604081666921813,-0.084513526800157959,-1.4884599801560723,0.27787131228644701,-0.25415413627603134,0.48364711551166428,1.4131308311360602,-1.387797827713366,-1.9639208982830574,-0.44238598133829216,-1.0666904619380091,1.3794471280419693,-0.39621876715953136,1.5176661566201415,-0.58748254899597419,1.9022869857995617,-1.9968689998979086,-0.29634962413171823,-0.37547302410293876,1.3750768059188854,0.22381508191880803,2.6407263956288283,-1.4965909486188118,0.13797934517425858,-0.38380203677715546,0.33409622973915293,0.31817240266938329,-1.0760982700375237,-0.72552032046828552,-1.519198332410125,0.50707325459933261,1.7241504400320939,-0.31122931446705082,1.1025011414242121,-0.65919571040755842,-0.67715125809388155,-0.76208589069377919,0.4724354976184339,-1.4561215652040216,-1.8088535929194061,-1.1875372330313754,-0.88868604257643935,-1.6291456467367695,-0.86703583577022503,-0.65299238319922226,0.36438160133176961,0.83396941254085377,-0.63314486361002131,0.35081289500497431,-0.10348817424788305,0.4150011203068863,1.5549198963521274,-0.43622129257878484,-0.78798863904680561,-0.93872700539445764,-0.89150083731922514,-0.35904304054560138,-0.15728420981177954,0.21401311541358398,0.23014205549852873,-1.8089775776326866,0.68513169623798098,-0.38699582551026734,-0.35147844720774002,-1.5676947599950148,0.29843679697136571,0.44303986177866533,0.69927284768673359,-0.97004013853695037,1.3393705205867912,1.3977993781233722,1.5045258038673681,0.51436138013626542,-0.65297463307660519,0.23158143550357677,-2.2560922638290792,-0.13500456147044709,-0.94146366394856384,0.48873514405015667,0.60737802776884953,-0.15659800006522306,0.79203189762719073,0.52600342590627414,-2.026901345060947,1.2248938177791413,-0.18222224361065811,-0.7699747126996016,0.72852737826329694,-0.81138918867422305,0.83818279747264735,-0.76236835394415392,0.44948289392137425,1.3181515282440142,-0.24728622031161615,-0.16860957897572715,-0.060737591407311477,-0.42505566037648651,0.65035051038516334,-1.3155158561175277,0.061070103806400523,-1.51604297468662,0.13209280337685611,1.0788482162684723,-0.5140060860540735,0.80977303423490032,-0.17583011305721341,-1.0404203329962556,-0.44523845202911028,-0.14214524670521142,-2.2433427917868158,1.291249216108685,-1.4426109017244031,-0.7005909573082314,-0.17479202355006265,0.98197659790689784,0.26301630203532606,-0.58017485790339274,-0.71787822664109391,-1.9791503780689412,-1.4043623536196448,1.4123807862181317,-1.4497142061913695,-0.40170468272802684,-1.6618054655494796,-0.38578370885967816,1.5139469354189568,-1.0363710812493996,-0.091356417976267756,-1.2407650800114953,-1.5755216052246963,0.34225447971101247,-0.65577260512908353,-1.5760243890229966,-1.7138349591752517,-0.0056230267119942992,-0.4445545668328128,0.23629424418851336,1.2940472238568068,-2.8464601417801476,0.49899740507749885,0.77877610083669402,-0.82789759979402378,0.55882356364752506,-0.23391008253590137,0.024466280464391331,1.1064281631580721,-0.55413887387781191,0.91987827635327879,0.42542805820557472,0.44274170780038213,1.0292067681015333,0.22843765286961332,0.84902057771570827,-1.6108896558874115,-1.1573588472620875,0.54970540196935092,0.02830240602668813,-0.037673739650287585,1.2774200609329183,-1.31304222943327,-0.12887589565492605,2.2872995533352811,-0.51633359706419191,0.30854223737546166,1.4262945720507527,-0.37641960244479639,0.14906697425723794,0.68006505747104185,0.19850913709090517,0.82284116129905271,1.2852426737829414,-1.3101719593801289,0.53947168765923648,-1.7856600341936171,0.80265735816133588,0.63495483093104954,0.15928969039312643,1.1070960338978171,0.041167457179126718,0.15765999480687193,-0.1305124240964507,-0.88095631579367339,-1.2686879178303379,-0.68873514450927564,-0.24563737185514559,-0.36745372564587553,1.4307509525428588,-0.24219641483333512,0.072817289565069943,-1.1916607311831402,-0.23567168054257692,-0.27058992813549998,0.73732910194569234,0.22151495802774762,1.6835073589521028,0.035770037634136984,-0.72003478459954684,-0.30799613670866338,1.4376024916672483,-1.3044658325838721,-0.4626977846279749,1.7461925788328865,0.32232493453734368,0.71031743326377272,-0.42743262329895021,0.95883733349207334,-0.72653895406415792,1.4796585407788743,-0.5026179014791512,-1.0069157481008175,-0.40985732504301414,-1.0401287050643009,-0.65372431157481525,0.52037925224834314,0.37839617104337619,-1.5462151610764125,-0.16967973609559014,1.730160489401372,1.0638108791622851,1.3677368666629164,-0.60623123860939754,0.73939742319274393,-0.8701435773148688,-0.84805690524636845,-0.053038913767080177,0.16534215839529029,0.45588224963243146,1.0912216520876232,0.79664037307752666,-1.3673774485110934,0.32097218981167491,0.86469205628016421,0.75231064782774637,-0.31516511555421556,-1.0527352452631695,1.0945592363922356,0.33117460050156816,-0.54233725170002223,-0.68451264562860703,0.084670705105604718,0.095201928053832013,1.2160773590843317,0.36758207852318397,0.58474983423811111,-1.0621068073504052,0.61475201506265031,0.68384561395321497,-1.7019813058100985,-0.53228975276362522,1.2317580962105408,0.23074018035133143,-0.35248410372944361,-2.0156218254267668,0.39683604526548877,0.8021214609662457,-1.3095940163593014,1.1756308581791464,-0.67035251992122491,-1.2374332644339863,1.0478806553361293,-1.4087085064246956,-0.26767301636575019,-0.92826921402454943,0.041888892159014639,0.28795752049669615,-1.5746572622553918,-2.3316642334483557,0.46704167706278538,-1.6932349985297694,-1.2799136393909392,-1.8859645401484397,-0.8544890649398853,-0.50847726318213959,0.62253102233937174,-0.74081437900635105,0.15448866325905727,-0.11838453244833008,1.0459613964148378,0.55388176696255265,0.10382154866566955,-0.40602037170230704,-0.21371894581551426,-1.5324381603389032,-1.5462798620103773,-0.18323126376213272,0.018233346155534114,1.2995973115609609,-0.49713727753030018,-0.31699426619538273,1.3998244888230069,1.3647375356269935,-0.37223893226063237,1.871071049230999,-2.3417099584567223,-0.54987264404736158,-0.29321348354585519,0.73883350025170991,-0.96400233769743882,1.2030798090147141,-0.48839737166409258,-1.2536269465148333,-0.45989870788130416,0.52969942861513108,-0.80499369713136726,0.15344443098402591,0.16781978085333429,0.67036714747476545,0.54675703595460312,-2.1131440407697317,0.74408113344955651,-0.80450842608257633,-0.66188007413766992,-2.0394413105585261,0.7607097423110617,-1.9087494754411347,-0.57717103533913605,-0.33649565556853439,0.61120695139903058,1.1814930096329415,1.2875618429585773,0.55884866692516388,-0.12780921243979054,-0.70064201609611509,0.092199291351083415,-0.52000473185894946,-0.42309005728236632,-1.4783126455374991,0.26589874946932485,0.232539731240514,-0.96033692236143708,-0.84323471677499306,0.35901682323181955,0.32505887025249358,0.84466522128128019,-0.68762901746274718,0.35132348236091454,0.15264881505027614,-1.0590278069388945,-0.63892601865752308,0.39182758560080727,0.35719164962317218,1.0232368539410654,-0.60900639751436758,0.053781024377547205,-0.60341552930755982,-1.3736883069458854,-0.070208642023949386,-0.89201746080162403,-0.35654439663163917,2.2319943834442699,-0.55314511511119846,0.91020516543038987,-0.12207235810240792,0.36955598044289789,-0.80868957448883416,-0.00034553903913592807,0.18580322468320901,0.95406498358491998,-0.31150453421988256,-0.74159749630435345,0.67506329742509075,-0.56593627279185899,-0.40795150297888888,0.16254761511105451,-1.8194346073413001,-0.71283748686480741,-0.53750173883731966,1.0337816083940412,0.083031556330764117,0.35169199032816389,-0.50553889133708951,0.7341320472177939,-0.18504409503748176,-1.3652300471311491,1.4906839322820262,-0.20682176493202198,-1.2083724658430488,0.30934650731124891,0.086581396431729948,0.85070884430907978,-0.62005789597019012,0.21600996857494256,-1.3619370764041316,-0.77927126339590447,0.87248553307394383,-0.15825443866548983,0.61943999210011969,-1.4303839070432878,0.10917828022502737,0.10547349866832564,-0.23749183320687581,0.7650658478756035,-1.0157723935872263,0.54087013484012736,0.91796399327468581,-1.9064806552449558,0.56991008740123872,0.82112432780492461,-1.5046019173514207,1.7534569303046503,-1.3903143519503982,-1.0503712262016378,0.74167542692165933,1.7218337507109536,-0.2934556606582342,-0.22105390240973316,0.71740903238370435,0.15580437850054929,0.64261754532565329,0.48083281948824064,-0.83725041569069947,1.2297764967307507,-0.23101196030588311,1.1019921387304756,1.203247424440153,0.66063500997141666,-0.79838134830926066,0.34670722618409117,-0.84530425119181618,-0.98386748122189716,0.015559070949303869,-0.38256528022564168,0.057179683504698223,-0.88286951499341781,1.1974869777589305,1.2363773637047053,0.083294072121874285,1.1434646377835469,0.22592469057718573,1.1492613587421576
-2.1324492715483752,2.7094673097641135,1.1278443727961258,0.64308336924103437,-0.59626522157691275,-0.50172714974092714,0.45851814506804833,-0.54494798727947846,1.623505772899813,0.23139251064234823,0.40673897459041713,-0.38035327678733793,1.0927615075814778,-1.8599337133742022,-2.0004680983916781,1.3071356077731622,-1.7042683059309518,-1.2249048228319821,0.19475995463303522,0.42378252503008168,-0.081813552165544076,0.43979456073248763,0.044933967733750281,0.53951189014798362,0.94778345267084907,0.68025501032853397,-0.96180402434489032,-0.35026299703083735,-2.0300251007230767,-0.61354434643819244,-0.5523617263030679,0.04535585368439532,0.25832367677139367,1.4609744380749146,1.1332426645693021,0.9784561300857284,-0.62048978768727137,1.6896583441251714,-1.6707480684254945,0.4959764136005016,1.0612206222063174,-0.85666049969392111,0.43084617743884496,0.4986858181070547,-0.56081544358529889,-0.91370532319599163,0.74087480627910207,0.17467114726044833,1.0826350558562501,0.057405750539445202,-0.39415867291200885,1.0286105952342854,-0.86965975176354904,0.24104733398579167,-0.20284017788234299,0.36038204625515641,-0.36834646942120497,1.2860553797785472,-0.74123400322745869,-0.38982068938068681,-0.14776051975123575,-1.2967221057344294,0.0029634247288851676,2.0122285271203832,-1.3266364875267258,-1.0731760563826094,0.55700652157817943,0.66714556130140901,-0.028183591658562362,1.6538525124631553,0.24041911348872266,1.5110406984154559,-0.02576898251084344,-1.5793244967623465,0.023094267989416776,1.6854816572266993,0.33220036984440682,-0.56631843635025625,-1.4200325554674393,-0.12473753200860545,-1.3460076598422472,-0.2752776739696316,0.33539386989796044,0.92291613113094684,-0.67460842824111833,1.3330471607948127,-0.36961609882303792,-0.50076848266684293,-0.17016241746685612,-1.0901876540959867,-0.045047144148599859,0.74333882038490318,0.89556545177768465,-0.51476404708234702,0.28470151371841251,-1.9706880718196476,-0.76274064481572379,2.0268461866526768,1.0659359201144747,0.97453336940908786,-0.82082454166654528,-0.3417133418398709,0.28176295566825604,0.69634871209239202,-1.4106488378735509,0.89414509510203044,0.34907277901431227,-0.21807489012843032,-0.68266308214634519,1.8613371924238487,-1.4426954069498412,0.94638585410034082,1.2113181213750133,-0.48156817135474,-1.9121355802584548,0.33092909582709124,0.23781799030073356,-0.66331608954427779,0.56060528964751533,-0.57487298687723332,-0.52528431439574885,0.84792769898611264,0.40105385813775785,-0.25802445771454408,-0.19100798497462679,-0.54966198450982229,-1.7495271574225075,0.54149038744284461,-0.49350380433476881,-0.1188070360044136,1.3369546837356756,-1.6863319406560864,0.045254507432465008,-0.66222590430173101,-0.91586613074111101,-1.0307982213413946,1.3688872615361287,-1.165973256130594,0.62658690690956531,-0.27756792525491458,1.3135247654935915,0.42554399822768446,-0.081898173536551211,0.57901036563892394,-0.19231633811566495,1.8317109299115932,1.4635702590687087,-1.5378272605452481,-1.0248624506061181,-0.63759489779657741,1.414531438701476,0.0076737601047773803,0.93052341169603203,-0.61734754945550396,-0.60333299745715108,0.41127979051180208,0.51408612715631463,0.9301816952788623,0.12353142901494152,-1.1710791679767836,-0.20324431941226143,0.45906943566610742,0.28777826715148042,-0.1013888546072102,0.48188004184786692,1.2761216810990554,-0.34323725174171504,-0.36562968113946936,-0.96210876606266549,-1.2991009899008077,-1.3611615090540401,-0.39775732815457254,-0.66662250858661454,0.51319384213793118,-0.029216608040584211,-1.6702388080575885,0.67093263230965206,0.26901527065312875,-0.41496492342173569,0.022760124845891457,-0.43570602177403239,0.6686110872887453,0.16526799058910169,-1.0183664502999026,-0.13118481524695647,1.0027948532437174,1.8780314912871559,0.30072687384116803,-1.3458927073850802,0.038623737188461536,1.0683783169311001,0.96076258935378345,0.56763627482364087,0.58217074682297265,-1.2692314010935377,1.244892274454565,-1.4631239003306287,0.27277630537160164,2.4389993397374718,0.33409536772784743,-3.379120575831263,0.0039722576568487142,-0.29388582661195473,-0.052483805955920226,-0.96502218102848458,-0.094110759682862422,0.043012442247781973,-0.21659873605208385,-0.69319807418478363,-1.0495723721841326,0.86462982419250234,0.065273473818364708,0.038014227136398092,-0.46669283602662992,0.15192639459384544,-0.4662979254364662,-1.1313649872471412,-0.33715077332035137,-0.7798772727064649,1.3982173263313968,-0.16396438110248185,0.26075044410492859,0.082346624435040108,-0.41838697162647071,-1.0159519070119203,-2.2773606143931993,-0.41357565884237779,-0.88174785522239585,0.81437097909397438,1.8363173043307979,0.30500703580152594,-0.87906093305776911,-0.59970872895688843,1.7465582040049257,-1.518071532191922,0.58737203570504681,0.63630660669107908,0.96895794326203188,-1.2904120931650882,-1.0402138548688185,-1.129372070938613,-0.54295945065457585,-0.20388471971531164,0.23136567649479173,0.68479313859443358,-1.7813639421101486,0.79931941012316232,0.78634174150256486,0.014464071648177252,0.29443014334250789,0.18161685660175411,-0.53648456456857885,0.47079320779353023,0.013555484556368626,-1.0527886943765516,1.5503983665649492,0.12867001274670284,-1.6862026842532138,0.72472259712840237,0.72705760863767854,-1.7723255097531767,0.46505369921996259,0.818485447534122,-0.81868077253524685,-0.72442897442101484,0.070611663404922226,0.041457157560765283,-0.52318820431251356,-1.2725839300467681,-0.6362740536331295,1.2680995554203915,1.8985972513689726,-0.92668275263272837,2.105881546100977,-1.1393752495929097,0.26028293724394247,0.5240662472624591,-1.1553506997860281,1.1139079345169014,-0.47395667296752714,1.7367611655477158,1.2197055595880348,1.3788817894905341,0.91341722183861584,0.71383356001387221,0.21445750414379763,0.1496890594259451,0.88646850572571256,-0.68910689227504685,-0.23116885806406931,-0.75681084276741339,-0.63817326167651722,1.4223607522302992,0.81270473674560284,0.30237175632805247,0.71707497086182725,-2.2555226835208941,0.13726117681280434,1.6351041652601461,0.091976742878407722,2.623134583318794,1.2136245770415492,-1.249842966626554,0.65624377619512964,-1.549921745163092,-0.059044895432136889,-1.3381204300729075,0.69260778038132775,0.48827951058285585,0.27675917956567464,-1.1361703147549844,-0.26868880473592444,-1.6377803948604026,-0.3312546823596908,-1.0148350749745734,1.0959381287466567,1.9859063759400875,-1.6844942170310664,0.1339725866993233,-0.61980495681767855,0.67356145270669388,-1.546755011499793,-0.5780165705239636,0.91995494433005465,0.21492297317948092,-1.3825074051508666,1.3251835465107431,-0.95884175943019045,-1.3124272609584104,0.88691630000774779,-0.93013308743794576,0.085326397251922953,-0.14525919165878101,0.56969886859451535,-0.24307282355987359,0.03650643223218502,0.51811495605790936,2.3131654299949815,-1.1741218186590885,0.20036212932829203,-1.0939749297958705,-1.4046387498313571,-0.75540399479338138,0.53575551091809537,-0.9296611930635521,-0.14822392014086649,-0.87721247672838065,-1.2736688658013908,1.1702832923337605,0.3182675081230037,-0.069552988760428272,-1.5436311307191404,0.81772348125757854,0.41217020199477394,1.24935290171445,-1.3245483609462423,-0.28599845848979349,-0.076802881119098484,0.24295067853167315,-1.0236574882882561,0.19726745726060546,1.080735118077941,-0.57886278665619639,-1.4623072138083382,-0.19255975827364918,1.9308955328634343,0.31425242892170624,0.54012587744253093,1.1179730094838285,-1.2946400583658333,-1.0467637406847776,0.4787651258761258,0.93499351577930268,-0.25649441785153387,0.75127294744493867,-0.42794762712228207,1.0033017542423501,1.9855893682961874,-1.9077477279220521,-0.085550173570412863,-0.20708944133887408,-0.53031783980416092,0.1160528210943462,0.50181027032830705,1.6168619111825322,0.35548802221604631,-2.5974972803840592,-2.2237239022331523,0.73209165186380709,-1.2385546229437217,-0.97727055134953078,0.61772156417364521,-0.63603009601323912,-0.1835641989152163,-0.88258648706923792,0.47551711186355239,-0.044411798990387018,0.38015281073970753,1.6464196624684531,1.3175789038235692,0.30146288927169446,0.66554373012210699,-0.89591905435540442,-1.7527789871998245,1.332859987273163,-0.17365077324187803,1.4392145469260951,-0.28353596527249308,0.97402414547174454,1.1671515459429824,-0.023243302272968371,1.1102959592674169,1.4850812726779923,-1.3646796609694203,-0.037756153671317898,0.94260050377018734,-1.5188736823448399,1.2904899773957634,1.1029843178604835,-0.92906722305781342,-0.67456150823605021,-0.23367268394120846,-0.3932971964856502,2.1353000700963247,-0.079565170508690247,-1.1035114191566708,1.7447182549042453,2.0091491709560665,0.36548331946037638,-0.31068604030886404,1.0117444624265581,1.7941726859978502,-2.0143077261581919,0.13871745161092383,-0.44790705614383397,-0.61142137253361462,-1.383989915929329,-0.99832762981256795,-0.26317991792173268,-0.8212465913999295,-0.64543375866352359,-0.32939452121329527,0.32326179472179684,0.39000924780101259,-0.95643274769853359,-0.44454970661784199,-2.3698303346892891,0.81170360023026322,-0.78046405836733312,-0.57963459470126955,0.38653585202810886,-0.27485897202202519,-0.20800766719802191,1.0163240210052886,-0.38423221515608902,1.1131936782910246,0.20449760913271042,-0.0023721950642811101,-1.4039472787316145,1.5667684055304569,0.77775099446292406,0.88249952901927853,-0.96293036530189258,-0.71115905643437005,-0.96471502057951686,1.8055151910532987,0.36402047784172514,0.37448380700691464,-1.7238530766842772,-0.17047602755892563,-0.58813466183562624,0.56038327341657113,0.74187189141083276,0.8128996125753517,-0.00034343605066341549,-1.321973129193502,0.83574378803045501,-0.2048803116690594,-0.53191977872812091,1.2466418281000762,-1.2703285067520627,-0.80403033217205988,-0.35968223859369375,-1.2417897119436117,1.5790256586273625,-0.4992269132716487,0.41177636883537827,0.81380798648919772,-0.51829288296191922,0.48922481993843991,0.85158081003966968,-0.098761331786927919,0.99390436297457196,2.0669593240590345,-0.1233450003388402,-0.89868216403027412,-2.8841588836194911,0.030832992236553076,0.059336414812519098,-0.10886506564314766
-0.56001198621592962,0.14905998115871916,-0.1246136384955147,-0.050538219434821022,0.81092163944115347,0.52644677210497648,-2.4248377297907164,-0.56849413167375351,-0.07714195739330082,0.42228742576415207,-1.1541377880714125,0.08856469459744773,0.69421946247599442,0.5119531589091233,-1.4125958924732001,0.52739175370347979,0.84686512418807169,-0.94661203365043545,0.27688606498486912,0.18914446615681402,0.53911366830649987,0.63634710053061694,1.9493658938479119,1.0021961970728357,0.092372996364485024,-2.0666262696556812,-0.56944298165607299,-1.78816557189919,0.46679677801703717,-1.0847175389936836,0.45631059162237458,0.88699747187373479,1.5387036876174274,1.0091038589178127,0.17254921727425473,0.37638086601519638,0.13008418264810484,-0.41946108577960928,-2.4737542705439464,-0.060566312162514513,0.62631086062458763,-0.435237113215934,-0.072117290346897109,0.39810450746337567,-0.90697125506488641,0.59361096427666316,-0.85071142788406051,0.73380591754063473,0.7200976640825999,0.37698702395621198,1.3845289474523053,1.169475415061916,0.93545506045938143,-0.44541400687590088,1.2895959917702133,0.35305263171391704,0.1364115222716924,0.38829972091383147,0.056384588941477527,0.45607891301547415,0.090661662856482458,1.1644045170618218,0.81396195164492002,0.68757474214273051,-0.59740206829100173,-0.17481898362837953,-0.23409576557416997,1.1100076811797788,-1.2548983420591853,1.0956635215233927,-0.14740929528620392,2.1536269509135955,0.080524270465701112,-0.26174825006881131,0.11040101212424329,-1.260395453420543,-1.3508200283520468,-0.26907656844138972,-2.0750695221754278,-0.78097140438237356,-0.4439470040284807,-1.3450241096458473,0.83644810977951389,-0.70978831406863774,1.4658585984209798,1.9099400181247839,0.90977145072950205,-0.48090612425679419,1.3692334139128959,1.0063090732234914,-1.3094393383458294,-0.2637939120781797,-0.054434718486644419,1.3394823449577962,-0.22399697786063186,0.47725453897409087,-0.89268033507443434,-1.5398397731351849,-1.1592258398688717,-1.4543013505743747,1.4952751635646151,0.97389905421136003,0.37696200307438243,-0.87423066111135617,0.69986800068936539,1.2228682783324798,-0.81756131429256762,0.68859446337011587,-0.75512453174779504,-1.0960062591820443,-1.027905140262708,0.81110314142082662,-1.1654742821714847,-1.0890314941489148,-1.1803661021937564,0.45532792988282222,0.67929034138196553,-0.96576252880287095,0.34125297742692579,-0.012206316616514357,-0.72626316770080523,-0.010943994286449052,1.0271525066600145,1.0496586568269712,1.8525530473953102,1.3553661469131781,0.17434560977104055,0.76110257556435978,-0.55654683969256169,1.001715972525854,1.1336951787334337,0.40034183518504757,1.55897148573647,0.77089824414470232,1.2173008243074532,0.58725162769458139,-1.6988300852021241,0.20849459999228717,-1.0911920602949166,-0.4360475246725613,-1.8613886627519891,-0.74604932369185162,0.19018571452297411,-0.17815687594285917,-2.4827196194823009,0.2039184521533744,-0.32910607060912123,-1.0290530993766045,0.76363531900175985,-1.5643251823628914,-1.5047278306179377,0.19820392546850818,0.98792525734882242,-0.56767915797618662,-0.70404247938478326,-0.47851664053893322,1.143116863574259,-0.17622883276194307,-0.085093076587084537,-1.328837888363654,-0.15465798555513416,0.74318677145958911,0.53916888611832603,0.13776431404875439,-0.041169154543087762,1.670009730717477,-0.48123317138244115,1.1715128043989809,0.41186421698271153,0.36674733462414061,-0.3303256098036606,-0.78018786261691853,-0.12500227264357264,0.22448643056464013,-1.9528578212962702,0.89660644035225245,-1.4172315656506986,-0.23508847059115476,-0.83890063087317823,1.0136630641233288,0.032876761251378075,1.5269433918443827,0.41846018629458748,-1.8404902129984109,1.2621418949196697,-0.39884520599108275,-0.62383677982766006,-0.47048507666315792,0.79233826336730251,0.016288923157187257,0.38765374922588242,0.74249168673467802,-0.48308998199585185,0.47075980141626572,0.76047318548684173,-2.0084403913255389,-1.8897557404184226,-1.822230752141736,0.39157902169841835,-0.1021767529029069,-0.29864942385169013,0.44050513031394611,-0.92399440464123261,0.98704005312402388,-1.4436944862796932,-1.5200945612872834,-0.1262053624780603,0.90386974983336632,-0.12714008846943259,-0.037089420606059478,-2.3954818524915895,0.43294357471365863,-0.5839309057618044,0.5464878577656278,0.74926393658912638,0.5243740323535,-1.5091019856820564,0.68130290640163205,-0.32683857042170122,-0.68350259775743605,0.4079462443663518,0.027144505072217082,0.53053005976296475,-0.41569497909580133,0.41408375610561438,0.061813163330670808,1.8149861073496847,0.37894523746074449,0.80961237769562022,-1.6929382271883198,-0.37128317748578643,0.90217040558084438,-0.31844713078589609,-1.2993928320294426,0.67785725860689627,-0.77936267891247346,-0.121672681360373,1.0421497855836241,0.28485400388145693,1.6874838983845708,2.5410590404091065,1.8406468662673678,-0.79152079101083084,-0.1902920127688118,0.58905225522640414,-1.2043029921431492,-0.48357415614250659,-1.6900724621503667,0.84854627376584846,-0.79792117576819244,-0.91038302496511736,-0.34513939165819124,1.7424127094036077,1.5795729302392387,-0.066998915377801602,-1.3964391891268182,1.080157479320673,-0.60434624342001853,-0.41705782326259355,-0.12142091056628918,1.7849464403423196,0.34352440456481853,-1.0370335930603618,-0.9117496158573104,-0.96491562598611602,0.75017492247477269,-0.8488253109657965,0.23202049690142384,-1.4740224412053138,0.39531655201401456,-0.3053343708600923,0.19505263397208081,2.0964978187656267,-1.2073968194602085,-0.83341567264565863,0.48245570231089108,-2.4327953435151697,2.1700165182534525,0.31652922670153555,0.2650361757357742,1.4943837867883742,-1.7157584333924487,0.1358399306099668,-0.027994577140830649,0.45090996700669639,-0.39884842714606689,0.74637300717154897,-0.36418497091856489,-0.47955769070367937,0.9864143218213417,0.70259027452850042,-0.77312752285899111,-0.46093654610669504,0.35757474933216971,0.42233002663316083,1.3209278104128774,0.27709997031791528,-0.32531835368593492,0.556975688244012,-1.0721260997365583,1.1833386081292503,1.4033409401025625,0.083946526083706771,-0.49184390147887891,1.4326877980463788,0.43526705570170338,0.7879153281088076,0.4705470913191912,-0.43313432033964183,-0.46249450624345978,-1.4503612152775265,1.3562383571535725,-0.29126991026799781,-1.3877569264046079,-0.055708590677327793,-0.32726502659427043,-0.78655611737338527,-0.47933010540684046,-0.30866389824667512,-0.97570497514842136,0.1722368820587801,0.89760149005484746,-0.81880931339612517,0.06713184078907343,0.93040947866084778,-0.5576548032945513,0.010970586210184402,-1.8720206185910639,-0.72351664335008548,0.08925734934614786,-0.28367642915305896,-1.6037525389362262,-0.962600094326028,-0.37531815405203695,-0.29396323664355961,-0.2816958339890524,-1.6381610959524047,0.4773490416594916,-1.4137853580821766,-0.76142337618263056,-0.32718723857232201,1.5480582187625218,-0.094055018380361163,0.70508350081633897,-2.1393131939261827,-0.62801707788627337,-0.73819515395641666,-1.1182869951168783,1.000524223285181,0.75349492037456034,-0.53188702846798597,-0.84876517168970089,0.31954894972657716,-0.48428284594268461,-0.53614265787062543,1.1506166213841238,-0.85335556065858453,0.99682883815868994,-0.57433508129917532,-0.14163745475225242,1.662406829765499,-1.4797303664507657,-0.039726037983780056,-2.6666622062622301,1.589674095396568,1.5554808310520465,0.86834301429806793,1.2104776483692656,1.8529703940312841,-2.9930580170551027,1.0165436061299482,-0.18061639916401406,-1.1596520060535809,1.2395267703283781,-0.47960150320933237,0.22437861990388899,-0.41612142688734988,0.99437548189520786,-1.3177226017503263,-0.069559673477751993,1.1495677486477955,-0.27962762751172365,-1.276082229688797,-0.75627886467868344,0.0424375457289283,-0.042574960403060337,0.78676134321326774,1.2720678254146833,0.85654177850226632,0.08967244775513214,-0.52565710776896446,0.460123533469528,-0.41515898685835512,-1.2939185314037505,0.31039940452427706,-0.054171041198025967,-1.3582739806659125,0.015404493543123262,-0.19967739936088752,0.26451864687343762,0.29667267543362169,0.44322959652856958,1.0324915743596252,-0.76050268431602241,-0.030397324813823796,-0.069682696548851952,-0.78365952631091185,0.073301668907672951,0.5775230612012231,0.93486797489102214,1.8471224640128578,-1.1896428828247083,1.0175210579785527,-1.8052166037735564,0.4157018163447842,-0.39869463699259022,1.2147349853308322,1.127026582463668,-1.9444475426985612,-0.47736622191906253,2.3706354174412421,-0.86990377591618095,0.67284482148336067,1.0334096654636347,-1.7760934355079347,0.58601754339626899,0.885125709860201,-0.30519516697127402,-0.57737616344368514,0.46119941356986954,0.13948973751516131,0.12379120952667852,-0.27201255977445826,-0.45931911351606186,-2.0165693457214147,-0.60916330712115241,-0.30835855568477155,-0.45802215866473855,-1.411579243555003,-0.40214570437734865,0.021095865951914598,-0.48427127275980614,-0.95124396001614386,-1.5543268613924388,-0.89754862759342147,0.017276217919541745,1.2296735761208308,-1.1100469349473379,1.6522482642011636,0.59302800971137615,-0.68851547474286934,-1.2937303166059646,0.67901626603561516,-0.035045217801168774,-0.6082467170444148,-0.44414104882314615,0.77465187048454198,1.8963762738284942,0.19900315194205478,-1.1373925310331743,0.54344164766957093,1.0065560521419641,-0.9477701935283368,1.3075860396527292,-1.7957149839329147,1.8001425698631868,1.9998956494242301,-0.32394695321261663,-1.9239972194528625,-1.2178339003414735,-0.33028068424462009,0.37042879393354805,-0.24200420601259923,0.39968072490177148,-1.4002945623524181,0.41637526265849251,0.45373080046539788,1.7153309321416126,-0.56156321678432408,-0.23478092025736755,-1.6467159270146325,-0.24424384653475512,-1.1584869101578006,2.4123441031349069,0.80554201955023796,-0.17820945979269498,0.18553972975870303,-1.0675060441500976,0.23339713367882137,-1.4855121748941094,1.6985836376419348,-0.19071072851107981,0.50198643460981529,-0.7674358698351208,0.65726568513148487,1.0399425264756723,-0.55260203616861259,-0.74533975459303925,-0.033528557570228948,-0.38108255653725392
1.4782458840766595,0.67408692707817341,-1.4420106617379382,0.98749446968327304,-0.055341787209671429,2.2897330907331206,0.52037461202262514,-1.062431095337657,-0.062510956056207351,0.28246880647316591,0.21672676361294951,-0.90866951046309663,1.018210435187713,-0.30834134901193694,-0.64208685663920406,0.16967684756313017,0.027668409872725636,-0.058376967438795356,-0.33246512149452545,0.78879243828561252,0.23071067788393765,-1.0275579133177144,-0.78592246224787732,0.045738810935387161,0.74771135844872549,-0.027258948410363984,-0.80027841301139513,-0.75354357415894235,0.64247462368895369,0.32593139777550206,1.1179565467859423,-1.8894855126417358,-0.6133871863808279,-0.046367514618260282,0.20783213031141454,1.8238962166963151,1.8699121680221831,0.14682013364324251,-0.12513967458565853,-1.8901385455788504,-0.23167987949453778,-0.34161209900899625,-0.87706991128031808,0.7109507763250652,-0.85785346018919262,2.0661285109665992,0.72243864355159892,1.0993593354935685,0.1053959716700907,0.070388200581254737,-0.15668991322068745,-0.81169229985613855,-0.55466293955997648,0.45536772067774156,-1.8232465764047043,-2.2064836336992162,-0.30190814513680103,0.87305587824718689,0.29519774385630287,-0.5260727131886469,-0.14529401580619952,1.8081600102252866,-0.46905639546560196,-0.25846912314790305,0.83013596653897204,1.8430639182933142,0.013136406920419364,0.017954145864825695,0.75786574031785203,2.2414837310131124,-0.78981530399877264,-1.9303098211781304,-1.0380090903937826,0.33821707589356104,0.35554133095433221,0.19986632571562796,-1.103219178555126,-0.013500783739702194,2.6574253493488067,-1.6450105209371086,2.869703819945848,0.62508055193253675,-0.017245549410366774,0.7571609923483944,1.2002827903427871,-0.18336387451747024,0.40973872625070012,1.9855866211693485,-0.10453136517874451,0.29734120511040946,1.8412444501446026,-0.20369867146344536,-0.74556839094227412,1.0349592821771587,0.9880814971219668,-0.87155438491149884,-0.29591856138920147,0.1668418858089685,-1.2404394128445542,-0.047373649835607594,-1.3062281253492778,-0.17245109891248089,0.45828532546614004,1.1222474179197268,-2.3396612564181511,2.6369564853195198,-1.6089324401864475,-0.48934973027153794,0.18922444755357626,-0.60545873706325615,0.49616076502524881,-0.80229407876349401,1.5880284433243967,0.093794687850942707,0.19823218966609316,-2.5868123149642508,-1.0040055414267151,2.0586365342895112,0.85143083770499461,-1.6614512513005133,-2.0365470817548115,0.85736653867538393,0.23236907438106333,-1.0214570501650189,-0.011603592321817241,3.3865424445376382,0.46293860183166879,1.0475054513140853,-0.97124764380514794,-1.2438607922489247,0.49794124221881586,-0.40166656547597435,0.58333365584197461,0.20083138535499662,-1.5577677234669736,-0.4216495867257441,0.063474252310128307,0.85559869596916649,0.75135745551821886,-0.66308733705670275,1.4979036032482398,-1.2179751482378065,-0.27478328815122255,2.5460550960507757,0.23955193784121795,-1.0980057409030788,-0.5097461196930746,-0.24455044382203261,-3.1300977847698559,-0.088254999124217429,-0.59585784677829534,1.8128811632026813,-0.052344003426974234,-1.1224800048701871,1.4477533036786547,-0.9561258894077872,-0.2857179910473992,0.62065769868624787,0.0090909525080457177,0.10082389297044334,2.082640521880347,1.5203000183971369,-0.37081558276761101,2.6614284536835804,1.4415415411211783,2.2004407113297315,-0.88160853511320525,0.27305209797285968,1.2056511664769323,0.81904589314590048,-0.383301943677193,-0.28854552199857092,-0.13053826056561937,-0.072417856856328455,0.72065106268756773,-0.46805034451860056,0.3816645999717832,0.83203402613782296,-1.0947031937013931,-1.4270620802059653,0.94062385762122602,-0.93901122645587121,1.1785698491892862,1.0935526622709386,2.0380557421513541,0.77595408034478874,3.0658499905675454,-1.0340285027656984,0.09809833444947319,-1.4978059792441791,0.25455052920647481,1.2362810997668889,-0.36717315154560548,1.6769223029571241,0.052179196252218549,0.40954126441217364,0.37084736572932459,0.13989614165843112,0.72320776672427523,0.3689817491457239,-0.26249461548022962,0.93048080658603494,0.97670370560853681,0.26957332271191659,-0.38280631228944079,-0.90574638270405217,0.7581392208070622,-0.32042259077933088,0.30961136428847913,-0.11642125749632899,0.8509843142753879,-0.17500730024568414,1.1487980750434763,0.077633086132765386,0.93777318120399222,-0.54359510947743306,-0.97976781693620907,1.7994443961340902,0.65847548829997782,1.8277891711504686,0.42894109064390173,0.59741456922504765,-0.49992799466987831,1.5051750953416712,0.84775845055761112,-1.5310485260180893,0.70641779046031072,-0.18070749368681505,1.5594149519813292,-0.42212308342589777,0.82872517891765829,-0.12992352695492015,0.80429803801608957,1.3199549097693015,0.90572764793684757,-0.077270376639194449,1.0181211377785717,0.2237879831535575,-0.23666034459911053,0.51150289047914677,1.6441320314140033,-0.71783630311596991,0.040178566568885452,-0.051183699055422228,-2.1548393974542481,-2.7873529137093134,-0.17217972141973797,-0.36832573231227894,-1.1874888591352695,-0.25394404134395193,0.60869714039412759,-0.83957455150125759,0.49637658636232129,0.47782325868358688,-1.6614339284618909,0.55412640983715633,1.4425022254375055,-0.64527249468159931,-0.44484621048177891,0.46477039125424457,0.18212490452256752,-0.0069773511741316966,0.25029441459904905,-0.16824837038428356,0.50255532256534585,1.4164571923542639,1.1730946760862655,-1.1302533150044438,0.88207096376054794,1.421340256866912,-0.0020535805390591035,-1.0316335365442277,-0.30250373418077375,0.40922394755947333,1.0933694469721968,-0.031743378565122951,-0.34172862019656042,0.3687411231266538,0.040535539058321544,0.90256442279778371,-0.64121218441483396,-0.59641204734664832,0.19514784602886268,-0.064745428810240493,-0.67805686129004838,1.4886888897199821,0.65890409706359321,0.14518378522952524,0.27375558610669759,0.87746685283548287,0.29247443172753868,-0.93520429218593082,0.78770351194417088,-1.1402176823408656,-1.1122382170839757,-0.32647273252928238,-0.045289434085944595,0.0093919522243099286,0.67733061487343738,-1.4786429860260324,1.2054729500780184,0.96238307037456017,1.7603114598276575,-0.77342173347560561,2.6169510181954436,0.54422825524599971,0.16954413298994631,-2.4161012047265689,0.061353121498348637,0.55013727856872863,-0.67819753757139933,-0.73498228944252764,-0.22937271165843556,-1.7558939451410314,1.1963546794650182,0.10664411950270666,0.5174365031143594,-1.518228263739988,-2.0372651599248859,-2.2256262264442737,0.16020700177179872,1.3947343982126976,-0.79922908180913033,0.8407159774203653,1.7151074365218451,-0.2021310891158565,0.94740592088627484,0.82847550531954073,-0.41669316724578226,-0.36621823390027974,2.2225996484751289,1.4919724854520764,-2.0263369697038125,0.075443134516961372,-1.9610851226210244,-0.49182407543993206,-1.1362961321865712,-0.51807004058988615,0.13685152413032384,0.33938513515852542,-1.0150073942924791,-0.62362757065707886,0.12758144085739709,0.29246834741371386,-0.5792146977075483,-1.0817890175020348,-1.7039111964262681,-0.42285106504133985,1.0378102734355812,2.0700989836876191,0.40502859647141831,-1.1374861958508602,0.55259801755773308,0.18343409839951411,0.84700845665333713,-2.6704991450630162,0.38932943169217094,2.0505461369808211,0.22343033334990461,-1.6466715621922989,0.050222494489481011,-0.43825953960053748,0.97155724702871937,0.14549816014098926,0.50127406795408103,0.21277283332895594,1.2275837921027823,-1.8480386981947232,0.51268968423173256,0.57338400261980493,-0.9586172571951006,1.413175784635315,0.17644608209287518,-1.3058417794239126,0.6693529466052931,0.14107673995525638,1.8909083535093314,-0.45987682290879767,1.0951088746091315,1.512082438699037,-1.800824128116868,0.80294156657144189,0.011614651546653879,-0.22681429227506222,1.1465067700169267,0.84001468640068222,0.90416161336834122,0.90233726645232093,0.41465919009560781,-1.1067239563424709,-0.098496229744199568,1.2347501485765207,-1.4367754996916449,0.95540868481600283,0.43409721089984876,0.37981877085375315,1.304122975407318,1.1675356805218562,0.3330665015451022,-0.87448769176843011,1.5663922198940015,0.32627588323908396,1.1986170154898965,-0.42963360845327292,0.44449398919255312,-1.9168674617528136,0.98449892220228108,0.11206024910998058,-0.12619318307264832,-0.74949584255809121,1.5794385628162513,0.022978118990474375,0.63166510262980413,0.18415938086051778,1.1874832984956116,0.83068129863361018,-1.9996884462959004,-0.097203690669213791,-1.2383099762363874,-2.1444381069428693,1.4468058841619422,-0.82853443998491016,0.61615048156278263,0.66791934868514136,0.60625165122832336,0.97299368649777085,-0.33584281082825673,0.73066799513043568,1.2983277163045235,0.40275547774397175,1.2937161665758863,-1.4179659039730965,0.89546156627839313,-0.33207216663958633,0.014790457141969032,-0.26171790253773547,0.13862766265846679,0.51422751980371906,-0.044444005462429104,-0.13531154356833969,1.3951845620890793,0.49600905274261675,0.2852550289921762,-0.44103884507170227,-0.69570163940878638,1.0268457415995,-0.93626812789818081,0.40405480756178375,0.26575839504482984,-0.4449923722699709,-0.38394364355862004,-0.53455175610873906,0.12465920896673062,0.61590611461794753,0.34272278123461114,-0.58466934546221794,-0.78221781862082884,0.37043987165126874,-1.8676120017740954,-0.050810457589589887,0.94490149692866909,-0.51597130014107329,0.21488905063185398,-1.0423045785422036,-1.1190433198254925,-0.74026046273820356,-0.24121319993033363,1.0699721287965571,1.2644177238448557,0.79081836014938212,-0.62439300420601684,-0.68120364491754548,0.7696194037965588,-0.85459086149968544,1.0575661616872825,1.2159421695825117,1.2993460366811111,0.41257933465920182,-1.5617374555465913,0.64071883317125233,-1.7700706289781307,-0.49610419999411565,-0.16995338567040427,-0.55960745069030138,0.52040808781709746,0.33475138271896565,-0.012193004763749576,-1.8206392358091763,1.4562213515039473,1.7914153766361249,-0.64288170988156168,0.25787316687822065,1.0358554925684063,-1.3043749941854692,0.88309778396944461,-1.0276573330197241,-0.6680631656395738,-0.78100498858115386,-0.47317832434389556,-1.2264100756654734
-0.025004158899515572,0.46968049473392876,0.019625017797197185,0.61255784404664382,-0.70514884881516871,-1.077718297500134,0.41420053592446904,1.1802684442506417,-1.7630710899451361,-0.73692934334887683,0.19548213725725563,-0.08573801420790883,-1.5466827107283392,-0.46454849857257685,0.39438836507844827,0.14593417759919353,-0.50568933799627669,0.91726351842898857,0.54077241408661769,-0.82432877488940604,0.15062810542157878,-1.4718117626321205,-0.36455080315383082,0.75923276842854404,-0.35695207468851803,-0.054099817069401923,-0.67380369115861083,0.69850152223771333,-1.2257692370435906,0.0481496775928906,-1.1053369961741144,0.86065248974953157,-0.11431817444834681,-0.258143625332103,-1.2080036182713403,0.31261865401114658,1.3380458355352132,-0.80271609763399676,-0.3085132279893788,-0.91278032900360695,0.58202284178591424,1.4183977910357954,-0.81554863821203771,-0.182086578536133,0.54627909269935815,3.0172190569430009,0.53052268160631788,-1.4735025905456884,1.1682721451726825,0.67014324484154886,-0.57742338578991159,1.0794387774124095,-1.9698886336206516,1.2710869982174078,-0.68707622252634692,1.4127840740319624,-1.7831005645294025,1.6147199549569242,-0.2897181300911314,1.3483255788391684,-1.3661151803426206,0.95614984409573411,0.39752810979896419,-0.63565796934001884,0.59747365211807957,2.1178041065291349,0.7823237002770812,0.72598497407511742,-0.037356820408154683,0.2843397111477779,-1.3784588349696509,-1.2311421968271525,-0.73793165034372621,-2.1192730691998873,0.10025261979031098,0.78178517588826268,-1.1141300143916999,-0.44074941340729157,-0.65133752367956033,-1.1037320070854753,-0.099924901867685392,0.060661494448691393,-1.5461157192716761,0.18333118908871041,0.92744499548929249,0.26444289698052892,-1.1718800628070452,-0.74539059199715996,-0.45213964192650569,-3.1661880027947333,0.48960173730130463,0.87261394093834499,1.0833279791924539,-0.50812123002053933,0.39127596634768508,-1.5096916068035933,-1.422507149595881,-1.5414108119002932,0.2808196331577712,-0.93359740906848232,-0.12850140558442072,1.8146972408641877,-0.86859303181373504,-0.5367630813988884,0.010275912257225446,1.3459652483842126,-1.1840336066082886,0.62364452874310539,-1.4478990791994883,-0.66030705820355418,-0.1249900124596223,1.2884681775077322,-0.71040109490590808,-0.58316262248475104,0.18759347981721777,0.069729050934649206,-0.75933771425182273,0.46917221502929318,2.3349238798578833,-0.41276092941653214,-0.27816459158123996,-0.06368725554424573,0.45629669908522064,-1.3345815476035072,0.083898166880518585,0.022066525493799286,0.94696271608214144,0.25775096299135408,-0.48854883906704455,0.67416887376128964,-1.2118907999608968,-0.3131599482091213,0.24577382864711553,-1.7913710937744713,-0.80079206814037796,0.23736949337953345,0.20736538941747004,0.18469866585928907,-1.362768704490392,-0.21133820762485536,-0.36121087559870418,-2.1326073006320185,-1.3376503781614297,-0.49131132271261618,1.3382268491902245,-1.1705904448111812,1.1375791782271212,-1.7520082458855528,0.38655111371145318,-1.2472259381302044,-0.34349294561152999,-1.9091564417801794,0.13097796188965169,-0.22211499249923147,0.8399144749645574,0.38962041067156622,0.088282794256842156,0.57103154457953254,0.050241164638598589,0.33832824523428412,-0.30939505838161002,-0.98433072413811695,-0.76745992639909777,0.032982999128788971,-0.54770983908088244,-1.4506020560177859,1.1079244173710261,-0.10851144210260863,-0.53572979711862156,-2.0805141216545331,-0.55296249697031141,-0.49341830487699373,-1.0367431004006933,-0.086411262480952752,-1.0043593815771852,-0.31062547175228061,-0.33820236930732706,-0.81742360115464607,-0.12941102817927411,-1.8823214324102315,-0.75352374898606178,-0.057465289054765348,0.5682855814659119,-0.16232947356228733,-0.042379084738483334,-0.78491361294570672,0.1489829197511372,-1.8872775272858107,2.7835092310531926,-1.7584151161079884,-0.35727321822970387,0.062685656295389275,-1.3592756445660978,-2.152820631736676,-1.1148644259014937,1.8311595253304263,0.55448963688190778,-0.34290851157726771,1.2080538872240201,0.93250678821593391,0.61521308538700592,0.4852574677353913,1.1659804265539664,-0.25140836995108706,1.0093485881927287,-0.11053903388735058,0.070352755198073089,-1.8024833039873176,-0.5333386561162311,0.72833870553103497,-1.5399719775580338,-1.5172661224665658,-1.4913500573181766,1.219320900715134,0.43461464325845017,0.09514952433344534,0.32202136658309333,0.13654124146955615,-0.20043201678196698,0.2005413903419348,-0.90412105107357121,-0.54338078534583412,1.2810642239446306,1.3358784562217316,0.57984405573151299,0.21176928441889764,-0.80489004008670195,-0.36276985337879908,-0.49437146836543527,0.079860789770871493,-0.4178203816271347,0.12664189974068776,-1.5448153439141981,-1.4121236956871313,-0.22058536575379617,-1.1401362562509794,-1.3292747763881241,1.2481389155492266,0.711960576551944,-0.21038438778817747,-0.99352703646233909,-0.45436337346976968,0.36640751127454185,0.42467110567256972,0.85161429332768424,0.67122639753655988,-0.66516752447826555,-0.6605117206972172,2.7654949458823435,0.46071195307822899,-0.50565427441592925,-1.0269776263704533,-0.79926040745410631,-0.92982968523446008,0.22717061453095208,1.4998622910053674,0.60080317092468671,0.031055051746691029,-1.00594361302788,-0.26053466593222452,0.36945227347582199,0.089015315722291197,0.023941958805174211,0.012365502532256843,0.43555899198473819,1.2629213185241241,0.46247157377937187,-0.084728238291620836,0.71953462695935566,0.68192968645110752,0.88086846152448162,-0.71177471393380132,-0.38318068507025582,-0.17093765717038675,-1.7889367926451192,-0.88702172273796764,1.1159018276874861,-1.1408368122587123,-0.0087361187525590526,0.49979491879888799,0.5020652676687124,0.37435639015444949,0.39554457517196784,-1.2284519553693898,1.1265391260836652,1.9068806422715727,-0.62452292690393152,-0.91524643980132536,0.66560471972823787,0.81847940350152404,-1.466623865936115,0.38075213306937056,-0.017910996726003593,-0.26962901537495171,0.28970756656829361,0.053113915318113367,2.3015506577598681,1.0354503694708923,0.27372952521391297,-1.0374685338444729,0.47564090761444444,-2.4689174793943587,-0.13679536221682895,-0.13933310269480503,1.3936602532643949,0.62722369127487032,-0.70554518951521905,0.53138229278468863,-0.4221530229912161,0.55842878458976508,0.64033695412525582,2.112212325903243,-1.2536932116307162,0.33088771460114108,0.15768274883489519,0.6158856756459401,-0.030089179482885673,0.31372025720713065,-0.1197238752425781,0.096136765498517823,1.7879784288320884,0.90760667216207702,0.65055313753428279,0.059630457533048499,-1.0141850283235656,-0.1674342496195238,2.4638244466498991,1.3568896623443027,0.79278301206375734,-0.034392561526427147,-0.39005353581174285,-0.45147301667118422,0.75802681568505659,-1.3061798300571226,0.28048798718280021,-0.35621977200255528,0.41988453605576292,-0.39496189829073436,0.34622993806867469,0.81907824272962515,0.39099749400244022,-0.59304565419822175,-0.2647316204181438,0.61107067235601964,0.72772654089590672,-0.14769243281530275,1.4283913879050141,0.10178969993388222,0.61692516987269719,-0.049307561547948693,-0.91771808793302201,2.1250831296671575,-1.2488793500455255,-1.1642480223373015,-0.5367661607364117,-0.18460410852897871,0.17726698192774376,0.82011854799741069,0.64292827874012526,-0.63374886066619474,-1.7530653101144933,-1.5546829914887568,-0.60922105531035187,-0.94057885027936572,-0.16211856182959672,0.15467614120849796,-1.1959895252282917,-0.43752714445597063,-0.39097904749308948,-0.55715078834485343,-1.0946281573103727,-0.54930821619986581,-1.1671102009370553,-1.5034138203299585,-0.70021044060926796,-1.4247288838124101,-0.91992258715369002,-1.1414114429665285,-0.086685958750123193,-0.5309441172983479,2.2054889118452343,1.0939151165079548,0.1141731966267592,-0.8403181893357059,-1.8229491047663553,-0.37278062054859917,-0.062264923786039802,-0.060287108601555887,0.51774025383467459,-1.7226417218060568,1.0608910264269302,-1.4517301847787247,0.67590033209045519,-0.1108581903794771,0.2129186815824651,-1.2086950116543338,0.32001439517782188,0.67008749157990155,2.1359984152194147,-0.31600204705649088,-0.29998526055946501,1.8355386166419938,0.8759469884031077,-0.27011686659711337,0.95913526706347341,1.2904244808013374,-0.83877372189690147,-0.93002557651743079,-1.1287002356724802,-1.3233081566729314,0.040564964114295637,-0.60533015632682208,0.40888000561401106,1.2278952980052122,0.14678170889256742,-2.3724003007518251,0.70148537646017128,0.45125089163162507,-0.24166941855445553,0.34759692596423147,-1.8638547726304961,0.72079574595864604,0.39483073045395023,0.04764736698547372,-0.35858383736355326,0.31384951248441428,0.26743242153866287,2.4101150990285323,-1.0022323788527445,-0.40705405775435555,-0.2823734534860371,-0.25647969624030642,-0.78417111469297862,-0.27231506579062686,-1.4204621613800399,-1.9410796378493442,-1.3415171533501082,-0.66500136810923316,-0.046830836438426754,-1.2338239815351131,0.86113181206084199,-1.1163059955973877,-0.53048326618225849,1.051327368032728,-1.2388576318103823,-0.45776970673067163,0.85988325772364338,-1.7838447090103966,1.9208686530563217,-0.27846300040092276,-0.38854288429463857,0.93463175612588023,-2.2499288638280874,0.045731834828499629,-0.70550800564607141,0.6397267694395613,0.079067618346726778,-1.7760203135703643,-0.77638689354447421,-0.31173792122781013,-0.91157021430974239,0.84463164168160754,-0.2661306132007214,-0.059249477838608573,-0.57583047758299899,-0.65726249707582352,-0.48438510046238631,-0.67160530986141453,-0.25178717482680174,0.36518421835695436,1.0037045469191037,1.9288859407316568,0.5209674270298944,-0.95645596893123863,1.2058957085474955,1.299992033266385,0.18875927159613123,1.1361188064459324,0.49004384284727753,0.15841257460161906,-1.253295518186792,-1.1526398397858664,1.2381109856900043,-0.31236022893571141,0.12923402567011608,-0.88043649652358402,-0.25477367438507098,-0.48983256536156922,0.13826256292064676,0.96183515980513279,1.1814788912859053,0.090040667964540966,-1.8701274110336077,-0.29175811703929655,-0.24544205893170129,-0.042382973651306478,-1.2292620364422595,1.2075202480258493,-0.17973454587192933,-2.1631786093116459
0.92619173436606628,0.23286782346801435,-1.1273179322774887,1.2669923936181553,-1.3881430904165331,-1.3388699325902951,-0.79027135045744368,-1.1080241948702096,0.44781597336762397,-1.064392465261315,-0.14509249147302766,-0.86434363393985925,0.3301989168530195,-1.0565384554591912,2.3010734347895743,-1.3964494080928733,-0.14612216004882408,-1.0435287107987994,0.62128751049521524,1.4153728845138425,0.021506048120903527,-1.195374272234444,0.20343803562067261,-0.45986726636109332,-0.38525589548777839,-0.57529910219406288,-0.79658247542491512,1.1960693532579814,-0.19511632713657531,0.62077956995254191,0.95665946725906958,-0.020065780386414461,-0.25852185066171013,0.79118942034699602,0.038403912276068611,0.46926797986295216,2.097532207957173,-1.1579220488425646,0.4509499026658898,1.7656359140464546,-0.61684536027506687,-2.4339411427405686,-1.8257330851473943,0.62546946829969696,-0.52917197370728575,-1.0778002999484326,-0.23647354146326005,0.12858352195687836,0.16677985999979403,1.0225391119940093,-1.0390587477694573,-0.52215526290767122,-1.1628776192394228,-0.45527503237815492,-0.46899451697803268,-0.2742381577458744,-0.038726946501304892,0.010348422440112111,0.87758097822859515,0.60303459592721387,-0.33430430334806266,1.8840891726033455,-1.8057288576283583,-0.54766808869820349,0.28605389530486963,-0.28949517523150908,-2.1189777593199266,-1.134078495427941,-0.84103018209431146,-0.51949256542766464,-0.07437472329013628,-0.10152903723474901,1.3508951445146347,-0.12071953379647243,0.39953158391709648,-0.46062072775435231,-1.1437591768108297,-1.403293721710388,0.14521380761342639,0.82228217655091518,1.9760644242876488,0.73641783976800723,0.28002136086303836,0.013617941267073734,-0.15940508902812764,-0.90664974544122445,2.0749984994013619,-0.19791467425296205,-0.65360994674651718,0.70928952415823598,-0.0077350805128125408,0.45878524128171627,0.43346457007681805,0.4888317251233798,-0.61697810460988778,-0.32088119819906996,-1.9830721242314819,0.28149033524629458,-0.89234200240159156,0.045306784251359464,0.24191077235444486,-0.36120877726618839,-1.0368757416671073,-0.79743450221338186,-0.57955947249793704,-1.1909598373388712,-0.65604055202305744,2.0149158460817818,0.32030409951496425,-0.71755568992329166,-0.55631696384649687,-0.88972197358055116,0.033658811555791736,0.32708530467914582,-1.5569912680853875,1.4144938646180669,1.750318067248382,0.13489776688697164,-0.5294350007566575,2.3109409615930598,0.97409013971155167,-0.16457650932144388,-0.96094867371991921,-0.89375353814304115,0.78492049915633166,-0.6769027654683264,0.80182052849799845,-0.2003314116876363,0.21091800458700599,0.022672371115887126,0.30914337487504445,0.1110548146768416,0.067307476541060743,0.37349409424939822,-1.052533467300709,-0.077819726235369036,1.1620960785638967,1.2126345359033599,0.84404108938208278,-0.32726502507752681,-1.4010516864461131,0.6430477623422336,1.0219497706546603,1.8477560363820897,-0.72901339214905669,-0.19099229075576771,-1.073433812189001,-0.9728520198339462,0.36357124829403925,-0.13432015566680489,0.33053041902372504,-1.3025843207337011,0.5121897987913816,1.026905018317297,1.2864528044212749,-0.51689798891341965,-0.85928977763235093,-0.25642136880536964,0.31564554677722351,-1.1639646876030363,-0.54639496667241627,-0.062563546447072557,1.0342542919757056,0.49974796691740186,-0.021078682757933797,0.073222213827679822,1.2209796734393386,-0.10832202521364342,0.76651224341122359,0.0083160086581156728,-1.5452527683280368,-2.7466370897991106,-0.56157995026980068,-1.3959104559944697,-0.32320136217044787,0.15074981712305227,0.56399541097743655,2.7784767789659774,0.77623703825111645,-1.961323022959184,1.6772589817883545,-1.0924321294156047,0.69817634121054473,1.2966352410564188,-0.32297542930883472,-0.8956830675984,0.36586222407644026,-1.2423765809190555,0.46046558461518766,0.59780361171820784,0.30490280493860539,0.17990151418028852,-0.18244724090116904,1.106139503797182,0.27636618523866641,0.15636011442613987,-0.43438068390279094,0.010713310751756281,-0.35602773874575339,-1.8997207120256057,-1.8242773729852817,-0.44925629373132758,-0.53036989114544708,-2.5442263842950412,0.055065647953026299,0.56186988698564166,-0.089313564397658682,0.28842336280859893,-0.97661425712637218,-0.42512304062915207,3.0316751124428127,0.98364863073435893,1.0982596371410429,0.46388994736992079,0.68049548946961447,-1.0148713796230733,1.1866176969648945,0.42968730780466247,-0.33893121983605701,0.20888689982050596,0.40103442310771248,-0.29986872586329005,0.3705859200005604,0.57316350341188826,-0.41840930792018016,-1.6000578379158397,0.84228528936645186,-0.074862453476972554,-0.7673731726998857,-0.85801776075935188,-0.69070477312391132,1.8124584933171912,-0.32588830139863073,0.58623101404013278,0.31550081777014088,1.1445537961397234,-1.3696058885872759,1.636681231687632,0.77287551466423166,0.74527217008230096,-0.21243756128804334,0.36578107278635552,0.058353625696528938,-0.79189171121346846,0.22387661061218139,-0.45679123932907739,-0.94498349363386558,0.54732582712306677,-0.66377544458928417,-0.75773036777581526,-1.1641179958567829,1.088066051179746,-0.034992125675147367,-0.83829449747611184,0.50120870150208385,0.46012942051794214,0.3184307220673176,1.4995493850462551,-1.662999111090536,-0.93215747534906013,-0.16102040807216733,-1.7529187805797402,2.0380247146746262,0.032725832135185727,0.78266193178716903,-1.5789007680481684,1.2166513334401023,0.16502886445863665,0.42344397746279561,-2.3606994357054489,0.77327417099831819,-0.88945244952334712,0.93530289167826564,0.97980857034584423,1.1847389471303746,-0.76678432440852506,-0.90995256888017062,1.7726773408003775,1.6603282675119566,1.4772445218052059,1.1477257880981382,2.8683874606552462,1.9479701763802124,0.22389208108024769,-1.1475705024936214,-1.0067469520316414,0.16443702928386875,2.3794720367947924,-0.68711383039834217,-0.16092062413944949,-1.5365111774768672,0.4353590606817625,1.2449743038458085,0.68457053999570416,-0.1406564122509828,-0.83129481794979998,1.5411837262352772,1.3604148458544585,-1.0680072601856048,1.3574200708833297,-0.97616841816294653,0.42320465687897207,0.66501980161179453,2.0055722811796488,-0.35167005168818349,-1.7941727989282807,-1.0236595510196107,0.31138046217614923,-1.3353612795987897,-1.9649331464110285,1.6998995276290052,-0.2286866749552402,0.75993833949335066,1.3157673684651159,-1.9503041569980222,0.0074951156973945667,0.40471681587423608,0.11445040530082373,0.54480708526446631,-1.0396969414851993,0.76691071756547979,-0.22537388551239673,0.26276392303265206,0.473878964195175,0.62704769228202129,-0.085349126457923224,0.48555674640870372,0.47956072088431884,-0.35007175405837104,0.7482405472379301,-0.93453146216921268,0.15232757576605238,-0.66266830639443053,-0.59235181354885669,-0.57811114015159148,0.55246377259977975,-0.6288339856933739,0.2624644107857616,-0.4304655955519458,-0.88880612042844442,0.94135351639452691,-1.5167955130334847,-1.0915174305750084,1.0729108051854916,-1.1785111395136008,-1.5775381707617984,-1.7031428698215592,-1.1166651840414354,0.97348803954988561,-0.53915068858567772,-1.9490728839398743,-1.3336602793648524,-2.3002260785751374,-0.29585709360437307,0.16933447255817335,1.2314602546219644,0.68180830895648636,0.37269879884736834,-0.25803891368997556,1.1163323335193771,1.3567138703688368,0.098916881176165081,1.3374424848834745,0.085229800227227578,0.17979599222910608,1.3401843540532397,0.57368191518204903,-1.2909667205725055,-0.93019065440072601,-1.2177868097484936,-0.083263066459410978,-0.98566935487331631,-0.16692959890622899,-0.69105364593075402,-1.2372333629187107,-0.074995051358429626,0.80937852191578108,-0.44340561565812536,-0.65259686402388162,-0.20687996859425634,-1.3352724097219075,0.92394871356295227,0.82053966604705708,0.087987750353466274,-1.6018668694460505,-0.072599807575362788,-0.14354467519345948,0.41995910379963713,2.4115665644339579,-0.16991079269150597,-1.1463686636366111,-1.1046471757980842,0.65578141354098518,-1.0365200000505035,-0.90220073184897831,-0.74221906683626038,-1.0152708364631291,1.962742510448453,1.3242564850175755,-0.0030721913397794005,-1.7412356084629574,1.6614849688755777,-0.5666997617267866,1.5843822963900009,-1.1022231869466363,-2.2327301861520241,-0.16187212581236335,0.15215038951789012,0.52501803752286058,-2.1619460613880723,-0.87066206339636654,0.35746580612652373,0.25848462205387585,-1.9935180513052155,0.29855451421278933,-0.13159579347918754,-0.49789438212408654,-0.082056671177814317,-0.58592376355239073,-0.5077397814664687,-0.89624060761526469,0.81052335007884146,1.1503480916486846,0.15457555199301035,-0.5226479938038302,0.28930648631568023,0.52229431578051766,0.46462677509188199,2.6071761677024798,1.4023773888785203,-0.23468728982892886,0.23776079381263873,-1.2763748481126747,-0.51844978266945052,2.8057106202084316,-0.53671837273283307,-1.6167203428003931,1.041061624721487,-1.8552474148278235,-2.3950731129104033,-0.47822073910618135,-0.030313996805510897,1.3767260823537146,-1.4554726903775417,-0.69820048757961928,-0.23261449001239529,-3.6238002332371249,-0.69253968006376843,-0.60299220864166847,-0.76600319677104245,-0.12418271043827754,-0.1296807908573282,-0.50343005644254346,-0.018598477070431805,-0.0037880433456740875,-0.22490125360592089,0.01832122556946671,-0.65464826281658484,-0.477469015329267,0.48720866149187914,-0.44255151759440275,-1.2077073867682455,0.76163717849946833,-0.84956286681733562,1.2956521975068804,-0.36740797314608342,0.4979616610314283,0.056428965469449942,0.16307017199859877,1.4454531613402426,1.6683884440153882,0.25485681461742465,-0.063521219455224986,0.41004404339634631,1.4593091162015235,-0.075111868990410113,-0.89161468424984414,0.23751030052371006,0.2694564911956347,-1.0140206022462037,0.84362677430250144,-1.1399192760125942,-2.5762081432570216,0.049557703292004457,-0.67224795119309255,-0.10241615091197272,-0.2514456666815415,-0.57501650186901576,-2.3256637494274348,0.44966624263758798,-0.44395398297965338,0.69719275875804121,-0.7303464071374195,-0.10395369149572574,1.8627639083356384,-0.19399574082836465,-0.049750844974220124,-0.14313624998285973,0.37659637146954195,0.0085803630285479111
