0.100686602406916,-0.29603669403669963,-0.52705958846160761,1.3565059533813761,0.76741611884910244,0.41952697422324348,-0.37593025367252736,1.1020729481286426,-0.83392595755540999,0.67943677043356132,-0.084832987795002243,0.35156800560396517,0.28784403472148185,-0.91821249744405475,-0.35672119063541152,-0.35097093986334926,-0.74700893208803676,-0.13419340969416771,-2.2602538938625956,0.85556652413420486,0.85756997380219691,-1.5707572977801751,-1.7967865370975036,1.6958156011202876,0.046435274265123352,-2.319192458677704,0.21280810792626992,2.3708434637743365,1.1845247674649788,0.35004485811553671,0.64503753134187136,-1.7638141749168257,0.73024454734311606,0.16465728806720992,-2.0319335774792764,-1.3409576660185258,-0.40274180660127995,0.67952441828053256,0.68058903290436823,-1.6237305893292593,-0.62075250832898199,1.033863268569214,-0.47304498246723203,0.29821358076787052,-0.036324748108251023,1.3169297747745092,-0.74633231461888216,-1.1377861829087168,-0.30560313131118161,0.34786208998936441,0.11673960774365505,-1.2657021510102793,-0.32483942869307436,0.62908473768998419,-1.194959787213421,0.50261768011817853,0.92682262499681989,1.9082074110169926,-1.167401216315719,0.97717066131041852,1.1159961024114731,-0.39982219652276874,0.70423096457232548,0.41148510303391528,0.24526417083689467,0.69613879789286803,-2.1138524717990745,-0.19672150222729323,0.7518563991223508,-2.0979369112152004,-0.069949454304674696,0.302638185117449,1.4131885532002137,1.6187990683950932,0.7829035113940398,-1.5417817873988562,0.94128601895218567,-0.72461052103014612,-0.110986526029733,-0.7027075277175121,-1.0226374874183319,0.30740602467529365,0.27230747773129776,2.258194794996256,-0.57727935533671293,-0.77807398651573811,0.55302637502111862,-1.5320241177580856,-0.57959386796280155,-1.1554192186410761,-1.0022092915733152,-0.66070860198026748,-0.18924147840771202,-0.96670217845596174,1.3221493758814513,1.4621308074773975,-0.55946383887198459,0.43089634353711592,0.28524404833323497,0.51027515225427544,-0.78216561437292287,-1.4851707969901331,0.4966874065424115,-0.038614116798581739,1.0148508475581335,0.30832027394268646,-0.09739826474526915,-0.009490238562806624,-0.47038571511681115,-1.3217761131252306,0.53085942493052063,0.74104721455704003,-0.52807582047821455,0.017530489586287477,1.6794025780374768,-0.64779058874525186,-1.2414481740534846,-0.25636178933889164,-0.70965155001801838,0.80979251002613162,-0.175285399432758,-0.3577540325493852,-0.35570448384222114,0.51742449630948351,0.26151190431300958,0.70767343925418946,0.80761024807701132,-0.045932367528424743,2.7481715358083125,-0.88718260370458168,0.64190081417505063,0.95129754366091057,1.6038761965967816,1.6074600135406358,-1.1022446405004707,1.3528391640867761,-0.68972628484985454,-0.76309448161319982,-0.39801402591822665,0.13141092569736021,-1.4989996414322704,0.33905239480102539,0.51429362872314188,0.29485435559307732,-0.0065371108088607523,-0.48958999560966454,1.1234679749403336,-0.75275840651469172,-0.76347193536887981,1.4642858746774414,0.58221407274832859,-0.30577910174079864,-1.5865341272655238,0.45546907952509463,-0.1899309444173006,0.30678882339799829,-0.12485951302484855,-0.88917641289853178,-0.083862214292994786,0.63274110363889724,1.2975521973805093,-0.55307912614160903,-1.1584828486471885,-0.28140757735966332,-1.017152550646885,-1.7955256908132444,0.019224296018120778,-0.11549941075058111,-0.25180006174012931,-0.55298050025022161,1.4414590893334374,0.81960291958425269,0.13464828036700066,0.56419479662808392,0.34864645242055425,1.7767408774084057,-1.2361744375924366,1.5666357232396344,0.085123224914861129,1.5273629327722578,0.16046343525300227,0.089699322664816533,-1.5004808863780261,-0.70580595982214966,1.0334297388497327,-2.007857472313157,-0.23720801319576332,0.69632898167193658,-0.044715666449554735,0.97474809994590728,-0.3704111412971014,0.74451025199694587,-0.7988482436717913,0.74377984968663502,0.84837091306480239,-0.67182039393319681,-0.017832458623340087,0.7134272004008273,0.55177798840986247,-2.900913328110633,-0.36523818118147211,-1.9792926551092236,-0.48305942916680361,-0.80142016605255906,-0.72330051734875733,1.0932611079961931,0.10767307307637002,0.38381896815771421,-0.85483028525809657,0.84030804445986929,-1.3778014603137387,-1.4679522899622908,-0.77653515407821416,-0.37586483993173292,-0.39381160621232403,0.45608534902475006,1.118458465750358,-0.66798068942476685,1.9913884462054035,0.00027752064250355726,-0.287133695920262,-0.044791682491468456,-0.91306442599867499,-0.86735749877640222,0.36855435686006943,0.6072536358359033,0.71699488648247034,0.44548105251206577,-0.82275327268341136,-1.5165919132158412,-0.62478191979155817,0.29914904852178403,0.75502487916331906,-0.037096611779770361,0.016407381359696303,1.2120351249975958,-1.4285026260257991,-1.308754908794699,-0.55079169400360128,1.0513697793592054,0.4115985668870516,-0.44725127837029155,0.58023557084533095,-0.14214472063821473,-0.82152028853177583,-0.75216577533155538,-1.0168539026985823,0.18501209462127025,-0.54104194292217389,-0.54947834581150223,2.4891325460899782,-0.61095266990897423,1.1799920671983357,-1.1429127139300275,-0.092857138761041555,0.80063068929989023,0.089360118834710539,-0.48967107663578863,0.18690816865490442,-1.8577652584026934,0.7326230662230252,0.59472317193874225,-0.24533688543797666,-1.4292954535422568,-0.24129957438247701,0.33477623422162239,-2.9297809077616108,-0.72579254749688049,0.63227213934532989,0.79619180944659551,-0.79156351113240564,0.56367029026840854,0.37929620554551036,1.1805000247047392,-0.98571414304857918,-0.16719579649428779,-1.9079510095077086,0.72461478031435389,-0.12018492056648777,-0.36079851913308031,1.2743168576001211,-0.9714106615753928,-0.92239038317704214,0.22132312935574086,1.149306482091035,2.0999047136169668,-1.8195225750283801,0.96583621650120211,-1.3903359090049732,1.3061522982696923,-0.67544692181921107,2.172670434482002,-0.14328327129391383,0.073315021663597893,-0.86565558387309993,0.32008610918786995,-0.69578083816967784,0.77738295650970657,1.737878656918793,-1.2083388015298449,0.27699223445535115,0.4529096692984827,1.6387515468851863,-1.5531500105203178,-0.28258138618889267,1.793854508744861,0.86516400173237673,0.15846924016189903,-0.29470975378318348,-0.091024491663431351,-0.27215719878268418,1.5054743988135559,0.99792413828244642,0.10770923320808962,-1.8116399375368406,-0.44282890420186505,0.68353170956321374,-1.5870426359765815,2.2889491304155412,-2.4114228505361095,-0.72205944843085312,0.034784774091693824,-0.50766644485157164,-0.52711780974997613,0.19226132785644576,-0.072365015781731948,-1.6693453689022115,2.4453804565827082,1.2948169705257437,1.2120573108490558,0.39287128467096716,3.2876506536842189,-0.91328696051643021,-1.7923398543122344,-1.8078242203680293,0.75153884839030449,-0.57438192493664364,0.040311526366518219,-0.36316876325854891,0.085135543249356557,-1.3742207090992791,0.28536603434241958,0.13696377596969939,0.68042234710157989,-0.648869659413569,0.63017874826502041,0.3525517291625811,0.66423190203285609,0.41601482232360626,0.049429047309697605,0.23127254505539585,1.7375817014224397,-0.65995022284526128,-1.3867104608046434,0.13787170929015716,-1.0366909892649048,1.0935838250068728,0.71441567843469711,0.34468685546176758,-0.86116246243140671,0.69660996366681716,-0.11107686713065885,0.054702482884981557,-0.56753015688603847,-0.34276895118399037,0.16443848676168582,-1.1157471645384023,1.8873177501059981,0.017153906685413337,-0.86765636457613471,-0.22611408614886369,-0.60362374386742945,-0.46954826244824699,1.8059315060880232,-1.902171073498836,0.95406169977922939,1.6530834214448646,1.2302092358669623,0.84810264472431129,0.8064002008800214,-0.3663079666891817,-0.032351447332258226,-1.3108804699737404,-1.0946847638593802,1.1020042301777282,0.96344814888433428,-1.2873567947856379,0.96284585899798114,0.44084770675141638,-0.054992089200265375,0.97794433455744467,-0.51840358161841604,-0.60300880275209146,0.381494388070033,-0.21386907387108026,-1.9051777520605517,-1.402731558176401,0.50395932340561955,0.49239575433202348,1.6798857027875942,0.6050749212662706,-0.064758769564531207,-0.53319892321786178,0.32320647665522734,-1.3900184255569774,-0.55406870547937759,-0.62167965910182554,-0.18045288960432299,0.052462719278977846,-0.62805835828158418,-0.3316838461044766,0.48876413728532525,-0.50427614145198774,-0.32000310181905889,-1.5128026939783128,2.0456113782484007,-0.046872019681150609,-1.3850387016977024,-1.7404006883972634,-1.0774706294790726,-1.1625158841823005,-0.24837505593205797,-1.215765558470874,2.3390261528963512,1.5361092901172071,0.46102649025174641,0.9835069415729959,-0.75901850768261503,1.7841741885502154,-0.056154620118038186,0.46098846978258845,-0.14161416162658147,0.69425376565156516,0.13790605208708376,0.45136176781648396,-0.66801559589798465,-0.50379634021227393,1.1254229156316824,2.007827240271423,1.2336458814737001,0.87498249203225109,-0.20486588868981909,-1.0595829408808126,1.2151971112500297,-1.8642156510888197,-0.23888451941787575,-0.12264082413300328,-0.081313016655087583,-0.39096080064664535,-0.54198016890002754,0.88924372035533561,0.43080865739127666,-0.4796582079425491,-0.6941908782024574,-1.5257798707679606,-1.2205210771348431,-0.044336699164754877,2.2295618325430517,-0.61194729299480322,-0.59777467599457113,0.96575697610192468,0.33958759507353709,1.3411469671487974,0.63461360317837623,-0.036673496908098152,-0.69425446901982102,0.75934358660079426,0.29613020962422382,0.30415782180509937,0.78160103326566399,-0.69605450145841696,-0.23617238116575612,-0.3411065049823731,-0.052550376886470511,-0.94888275560553814,-0.292821795757368,-0.0073253162379636975,0.21326009736297044,-1.5950498099150276,1.0295845650529944,1.5833659528687081,2.4656961664666754,0.86122370062495013,0.902977076041385,0.010555585916200639,0.8343582054303964,0.18724681537672591,0.64081725794483491,0.20993344771091224,0.51852401751412447,1.1545343746989911,-0.67433200511490132,1.0471815174243519,-0.93232810793392951,-1.0485944243682361,0.32104803037174562,-1.0188303608908282,0.27725107830749313,-0.21737221962401654,3.0478201911594369,-1.2737361808378982,0.83629375700070074,-0.83760220745572289,0.19270519600939626,-1.2435762891573783,0.85230004620377053,-0.57044216222993083,1.0894295202433695,-0.86908746446142038,-1.7983515774479715,2.2303990291758136,-0.62068976743762427,0.096991239095082185,1.8787094733503202,-0.93540803631412983,-1.805205822374442,-0.22794292118369794,-0.090398269640812268,1.6761001841160024,-0.84097505719983778,0.27813913598060119,-0.56154737252378906,-0.21428711858663119,-0.65104261298428678,-0.29722056142255315,0.58465935606192343,1.0880684954912989,-0.90566356953665617,0.036319098024144153,0.53437875025668258,0.052460915604051528,-1.2701773521419792,1.0780113917659615,0.21861291241664368,0.27843225911992797,1.4487486295616547,1.8226803860626022,0.7970194097865253,0.50108226161319602,1.0392333823421487,1.3458181107887428,-0.25450618322861418,0.39052900667246093,-0.28197154443959632,-0.46117829068986604,1.0199301323568786,-0.80174610522385714,0.53045116665746139,0.89110117373883313,-2.5118297063398343,-1.3444595867524272,-0.51008291752503188,-0.80649530174991746,-0.73276412856764295,-0.97490849103970212,0.73257882854050049,-0.75442551517536593,-0.25198108992459367,-0.86132188961849798,-0.54943695545293447,1.8735326227271216,0.29174742846391444,-0.72449207997744292,-1.1791912264551025,-0.87543607592632688,-0.52826491915961893,0.52950530670811979,0.11750916591438791,-0.52189399714203377,-1.7081621550268331,1.510328760010311,-0.56889389866474338,0.85644014138580682,-0.8309504268782989,-2.589587047042393,-0.27205261776509121,-0.034914447547997947,0.38794687427171182,0.27406022184223283,-0.50421418437163601,0.9987613558089935,0.31780285647220119,-0.72664453688325392,1.3708525526445507,-1.3303317990469012,-0.8893454966794333,1.7107141151456646,0.34086165533658797,-0.59487266120859905,-0.11028017095785324,0.40876996653682024,-0.7232480055278403,-0.70021039193681978,-2.2025983243783047,0.61976479493550396,-0.21025329779254853,-0.74145913319131906,-1.3673402029316943,-0.20188244533252414,-1.2723031807733616,-0.64816912625669554,-0.48534513999242845,-0.057873677909018525,-0.74890646599150157,0.73004516520414142,-1.1471091705553291,-0.10651408631928243,-0.58332687909486203,-0.34606445467767527,1.0176100232911207,-0.0067962990429891517,-0.56365429147563528,-1.6963488136508043,2.5893711456310058,-0.94573009308583467,0.80898379387944896,1.2306850477294535,1.2749240042647743,-0.13543818244472527,1.233637521121141,-0.18632277948321793,1.2685304481484829,-0.54830733465989179,0.21227434444929866,1.0158734946863313,-0.046438406639851847,1.2140518051951741,-0.98954327866381486,0.11349250873019461,1.1856441336969854,-1.0108461536333551,-0.48528592090994183,0.58827814410674273,-1.0388453510550613,-1.5140009849000986,-0.87425670312665205,0.0037818151502441969,1.6047019134450691,-0.10243132193968819,-1.9436595682982172,2.6369435148892859,-0.10276298849741061,-1.2050386297763784,-0.10057947950417227,0.89076711967078026,-0.65443730962849733,-1.1260190065640452,-0.53096203109141848,0.0260719726644719,-0.76944847730449573,-1.4395503725703123,0.24742071197348597,0.085690794093179257,-0.83809101656520046,-0.57601545999554382,0.029355856758713508,-0.52054707173718262,-1.5566338752687574,-1.3380046847588898,-0.21021664004520324,0.66668064333766719,1.1800668433556947,1.9206159152061311,-0.87894012009565536,1.0528309123463981,-0.66362293471276912,1.3309341511034452,1.7624414110072379,-0.16849829625787452,0.82737839539756997,-0.18782832373481972,-0.24420019489747324,-0.57587548134363209,1.9999886849247954,-0.39800804411281976,-0.56494137108909037,-0.057323274804666501,0.50528332385240193,-2.272085904042275,-0.45019658609813656,-0.013264519098820777,-1.0960099317124938,-0.010292137875855719,-1.3350273435624913,-1.1387840369554598,-0.4378428597932576,-2.5447598020646574,0.078402625555662894,-1.3201048443808256,-0.11529593303558026,0.21965544832870265,0.61495948625651242,-0.092067483320799087,-0.81650409355529807,0.16622667846249739,0.22176734014639635,-0.15899736800839931,-0.098611320678718556,0.5493087043140189,-0.25041674457643009,0.25394009392479711,0.16777227103592898,-0.24800210902515948,-0.066578031456303366,-1.2029586926649913,0.12663294699371638,1.3687838054798203,-1.4839714347834665,0.052061332815160302,0.71542080040016731,0.76887706053421045,-1.4030215691761532,1.0315265246983727,-0.4996671391106729,-1.0169553140472116,1.3652146163706653,-0.085353195558674738,-0.43151321622228855,0.4316821729189349,0.037427579547760388,2.0053059767872083,-0.30199575205395007,-0.64531940889626671,0.78030402246742303,1.7121904795633796,-0.90145414979339544,0.87145388856649186,1.3688500052504995,2.3339588899823163,-0.10814350919714898,-0.22926592107595137,0.26963802666414344,1.4061940140394373,-0.90742743883365873,-0.21303986714468531,1.2107042030983297,0.83336644998983433,-1.5556593342931544,1.1444058164067756,-0.64640283528556175,0.20423788501507564,-0.30836413871622204,-1.2021324782424523,0.061258029436694846,1.4768095116999203,-2.3886926748940795,0.31780166504255603,-0.52120629362725379,0.5950443936022437,-0.12238935567208355,-0.91783628832207498,2.1213966716885313,-0.91107747207110523,-0.54395485237333507,1.0973981028144149,0.20594251478083372,-1.1343610646990652,0.22115601440956442,1.1717971394698288,0.4644344791303846,-0.65815279885254863,0.9157163175653692,-0.15305955137457411,-0.35894664915947538,0.55998605195903117,-1.2169065102762238,-1.8787319230478645,0.62168276455580151,0.26987220414795576,-1.1503591246714198,-1.519128511299938,-0.46417604316722944,-0.28291216101552763,-0.77469294714946491,-0.59713579645143966,0.20798286544621622,-0.49684396935506742,-2.0907162592264394,0.28087283120941714,0.15780832143939785,-0.017231539678031236,-0.92029680046151008,-0.42873126400249767,-0.41568145721458449,1.5720589416274116,-0.071794315795576422,-1.0472701215014586,-0.59556009801243481,-0.32217739039185916,1.317382750299551,-1.8905536297670875,-0.60742856078627361,-3.3580895349628994,-0.052887747775598938,0.21190921599784299,-1.3372679348922802,1.3129116777234915,-0.26645245981429594,1.4283781764584986,-1.6860980035122652,-0.3401004252679487,-1.0864491556658791,-0.21435562440884984,0.60703872315017149,-0.54808219919195322,-0.55926998730255217,-0.47197030909353288,-0.51301452174457751,0.53304384612609401,0.28151593067658076,0.087927092892922457,0.43287089389658939,-0.81081279586531074,-1.341063674206054,-0.61124386550238874,1.2198208881628352,0.43302720706715009,1.6521796426238702,0.10554772370581389,0.2523207777275655,0.26600078750978728,-0.99885795759014118,0.24194933954741518,-0.15126836513859646,-1.9030313495096678,0.88466361561492202,1.1918981220278662,-0.29352057003700771,0.28272663232971051,-0.66417230977670727,-0.50839757119141693,0.97541305192578831,1.01190626993234,0.00045958255800971221,0.42608001856477401,1.6149959802916281,-0.18206899635954576,-0.43098302228107349,-0.11624686370207968,0.232307157292024,0.76382508475062405,0.85608669241292512,-1.7748909503496417,1.1175326237094643,-0.39261176073316695,-1.6839968613165561,-1.1819424247214858,3.4196089621473167,0.6752173574674345,1.5005890231017134,0.064328772975964843,-0.53528396620788521,0.036327345154690958,1.2149387419745892,0.23417580594819831,0.30205529830208183,-1.0924549868497786,2.1382332797762897,0.54321843619440913,-1.124123523260717,-0.12637699082538981,-0.7108811118034104,0.46591771283420874,-0.58358515295213176,0.06338266280988486,0.37319325364265588,0.39750869113396831,-0.089809986636794376,-0.81382152080132597,-0.87119368056453161,0.74830283944128162,-0.29546124398631091,0.84862594664860946,0.43392691520353438,-0.10904754498795446,-1.6849282847422282,0.31062356705956318,-0.25549985930706226,0.002458988702452113,0.22404881754905273,0.25509947553717366,0.94239601125845474,1.7345068814965821,-0.9451554181278633,-0.065554431668546062,2.4951254395150513,1.0577786441838555,-1.8706641084575095,-0.92414582900936415,0.88860263694386421,0.39913919528642777,0.062305809404068491,-0.56238533314657491,-0.53587479760615342,0.84253248905826428,-0.949952425206394,-1.3806650778206835,0.41998359487843828,-1.2825247327983083,0.56222609095312259,-0.3358626090780904,-1.2679440594927662,-2.0552770560792752,-1.1132795995373137,-0.28434431451428821,-0.72281637853868896,-0.021706129914604598,-0.10403964943546821,-1.0367169893386741,1.6016010064332349,1.1717066422718403,0.29706471038869658,0.018759890767615708,0.033616210189344166,0.63753366327232952,0.45002784545587754,-0.13845315895148574,-0.56634417190313124,-1.7583718481923565,-0.83987103277361497,1.0243109127165466,0.19879953230507402,-1.6734890085272585,-1.4414499023690925,0.25822807165765405,-1.377599056169595,-1.0094136793254127,0.078626401053990894,1.2590091238009722,2.9134803964418303,0.58809108825330358,0.28191075955155614,0.12040216897727955,2.2480682414106039,0.44145775040158219,2.0727896380585169,0.62581039400293725,-0.98916906629945567,1.4121828844118895,-1.3806711015369995,0.83669319590354052,0.079510254737437475,-1.6345771985447353,-0.15061054084285502,-0.75213696648343931,-0.46315087774339603,-0.32019425447946248,0.10597612485413217,-0.419836358541405,-2.0564348109903619,-1.452446378727587,-0.5941347666430008,0.80555853486300277,1.6755840310856833,-0.57425051723448783,0.01089367386862241,0.9542759302312892,-0.35163880115309804,-1.3528937907392657,2.9224756623001573,-0.23565870707197706,-1.3755419664071877,-0.51214706583473835,1.2441743153661449,-0.30680107197227852,-1.0150475628865034,-0.29382320772284237,0.24767031519120125,-1.598081799739939,-2.4654920992620171,1.0716189113593442,-0.12617120174626073,-0.3951690322535244,-0.577815071705165,-1.1256678349731926,-1.633867475546626,-0.15455622119111026,0.88610020249840371,0.79207002362898637,-1.0707094820708913,-1.4172721831832369,0.52886278324447256,-1.1379549111138489,-0.17487412907345418,-0.92571211790347196,0.45778978332152498,1.6914134963792566,1.8265145498400752,-0.83402748259969506,-0.41876892173264474,-0.18181874225720915,-1.8655436898330235,0.73699020240767399,1.5099146222344311,-0.76746061791645748,-0.96841180489081535,-1.7465898431043831,0.55363367522716123,1.9948108380885892,-1.9742347740467479,1.3909665476222315,0.63555667713742747,0.27539859574968106,-0.79970464749281822,0.002667929820019324,0.2096762542430429,-1.0110641312831781,1.5449348499494731,0.018718386961108592,-0.058432765367399525,0.44352219191095849,-1.5874861234042763,-1.1975249985864731,0.081416551468264584,-1.3958653850722078,1.2206268813542467,-0.40287077738969934,-2.2606565869986408,0.99487271777724007,0.033522981031341048,1.4208238639945068,1.5634643108491599,-1.0809257736295685,-1.1180891943725517,0.12176698840884533,-0.0015713415129381526,-1.608821279362268,0.035076315906367797,0.35912332040354056,-0.40796142969516608,-0.40068855607941756,-0.70660045246481529,-0.10813194354306253,1.8434314648075609,1.7010013614212423,1.3789982489379069,0.44700500583868824,-1.0639040288210608,1.2592230324360494,-0.13088613874260088,0.93181406850658954,-1.5048640921512015,-0.62090700427478374,-0.098200166038044406,0.67091851336631037,1.4750890507476289,2.3081844954523807,-1.2573868368029217,0.94615176854090877,-1.4654934349589426,-0.17751080367953159,0.72822510969586529,-1.8393535932230078,1.5551932832418269,-1.9913933066523932,0.15511422695200355,-0.746299362575642,1.0661966514807046,0.052462984926279974,-0.44853049207533618,0.073625372816696566,0.86979024785840531,-1.2366858568683163,-0.72603121166757623,-1.419845053414079,1.1515013821938336,0.11761662980963709,0.10154454587503242,-1.9171132404062305,-2.0963650537509335,0.99047819657870839,-0.39010763122254832,1.7731977380716251,1.5257589915493521,-2.3560807304726157,0.13962433816592587,1.1389223908153994,1.8913712429475162,0.31081978802709342,1.3339126101592005,-0.16482980310202289,0.34231409627337855,-0.7911807924936054,1.1576376453327522,0.74189096647615393,1.8979862102160039,0.32340794175037729,-0.12988490737462488,-0.48157972811441196,-1.6724182014111146,1.2880696631300064,0.34831817549202926,0.98574859860907216,2.2410277120058,-0.96467093792650838,0.45676331758028649,2.2405997895915983,-0.1383321244508465,0.27545709043422018,0.0126427991988598,1.2036529323754566,0.16177302386013009,0.63172074560965918,-0.73680596626581707,-1.1244601467307958,0.72975224292877139,-0.025127996175654133,0.54644937035858099,-0.029033261991548646,-0.12472802354689719,0.58271735004310654,1.721849508133237,-0.43424701341207267,-1.2421351492494783,-0.5771692727632145,-0.14410213753043483,2.4440005642971694,-0.25772702136142023,1.0187641794491598,1.2524817186328365,-0.89952660427065145,-1.5470724559522651,2.4021694129411562,0.10629874815264198,-2.1832822322623415,1.4162857402693987,1.4992020231663681,-0.38379326868612434,-0.65309318500930047,-0.22788106448899551,-1.6338078655179806,1.6496578859252351,0.6695622441179041,1.9176114953753793,-1.2932107941395155,0.61533680697451609,-0.69493940008373245,-2.0777353053701271,1.323958215117609,0.19374940847699432,1.2323548056834728,1.5388826843638632,-1.3511271116526644,-1.9597899464699078,1.5529079488900086,-1.2883754626837867,-0.21890549696583422,0.36541718115934735,1.1296235279631475,-1.4321431341893449,-0.88252905084642352,-0.75092551459146661,0.43833642043921828,1.1589074920310483,-0.15984081439929795,-0.41546015975591377,-0.18767861068852412,-1.8589979890151311,0.057050311724675375,-0.16338145275426735,-1.939607686932544,-1.4571461743683385,0.69798340292644645,0.92330656739881067,0.96719016035037686,0.74943863534534849,0.13918450183897649,-0.49485069999540621,-0.90298586553230142,0.015474523520418216,0.1729015597875202,1.2209575547817089,-0.86189978147569613,0.72657641732793377,0.45493628242322565,0.39834985280083124,1.1191563007226046,-0.33844707234592275,-0.24153460599983889,-0.98843576678440948,-1.2833613924506131,-0.38412468246706161,-0.2781585256140448,-1.1737969388258735,-0.12487491426734484,-1.370448818019695,0.083754457069404875,-0.41019744675723552,0.87040076691163526,0.040426794581717933,0.57348128887071625,-0.1866153803915882,-0.23949717299711429,1.2246722385183828,-1.2605824609495007,-1.301567191553219,-0.52930958883388712,-0.74076169032485439,-0.46860431200317398,0.76833422898271031,1.0834990970569833,-1.0135509502930418,-0.36748966334365263,1.1085291571873226,-0.69402730382933409,-0.85878027626946107,-0.74406249129021174,-0.96859941936258254,0.56714526488722539,1.4476827039899669,0.19251886887956096,1.2873347875348831,0.17554309895517936,0.069595876007936375,-0.68941404734654421,1.0874870459336687,-0.27276318960303025,0.58922720869046796,1.1813496223034816,1.5941979204314545,-0.55751877334208344,1.4547416950276171,-0.52996626257630908,0.80048323664651511,0.82517373639657965,-1.2879426508720535,0.024329696639147715,-0.35037054539221135,-0.45700649099900997,0.092627142388463674,0.82533975151503003,1.0924462333970144,-0.4112605536575461,-1.6786038838452533,-0.99999687468555543,-1.4623124420802081,0.27546143468634854,-0.65221673196558616,2.7227348971006355,0.49856288617653816,-0.41583743983447324,-0.11992848112053227,0.27942883668414242,1.2717265437317447,-1.5722107028933936,-0.49063159166422626,-0.066691201365957631,-1.038786087670688,-2.453631938879683,-0.086219098993520205,0.42894924059997963,-1.6531517411644625,-1.5158296948291772,0.7762129962729748,0.45552894937619354,-1.3268832422779195,0.015568712219304066,1.1098187720835568,-0.1574827254115477,-0.50334436006550487,-1.1964229930758457,-1.4804798120193818,1.9727659020291801,-0.45014132154571895,-0.32149139453000741,0.40716620979967427,-1.1364242206431512,-1.1794422760616072,1.6308651563579004,2.4119872658954984,-0.49577910177341039,-1.2775982415471019,-0.00053343489648525729,-1.4563646075572334,-0.86416384191934847,0.85953526788404788,-0.29327635375949057,0.19690802229084253,1.1683617091175211,0.70112417673135885,0.51286777300723985,0.76406416349072859,-0.32150711623800382,1.3092736470711919,0.0033981657827660341,0.15900753997481926,-0.37758533762644542,-0.12926934463833603,0.3180789599849117,0.46060079189959108,-0.5810319134462768,1.4385478526075524,0.20083388257813037,0.88157319577220683,0.85693633501514188,0.32834003931155925,-0.34892676825895075,-1.6726062114412392,-0.23050614464265798,-0.48163416487956073,-0.083332280168697245,0.96462863208410932,-0.87661766381740858,-0.31666696830718455,1.0498682779546042,0.23096929158311391,0.59937804059169808,-0.9368324788248148,0.55150017830604947,0.25571359868758259,-0.60523520194312053,0.77179044816349973,0.92406189731434651,0.55236868795176008,0.81532493900071823,1.9555399929760593,2.1525556148111931,-1.5295646394590858,1.3359477376909075,0.80520796647660164,1.150262362637285,0.16557935976128621,-0.20784651989195749,-0.93004189817633554,-0.19035919836758941,-0.47066862550712329,0.33754064930192673,-0.94528032188300748,1.5684103304025678,-0.31227082791337424,-0.85032013223006087,0.22884441536542199,-0.12651890649003342,0.4964180615865198,1.6301533285903653,0.93026931519233413,0.11703137227894651,0.43010033185550617,-0.11836610677767584,-1.0506738133964855,-0.22929232574422997,0.80174723547962623,-0.25569488981381117,-0.9785677292723356,0.15269696752452822,-0.94241164297406044,1.7643725266326491,0.80324982800720046,-0.80023175331232732,1.0461683236255355,-1.1748914807779642,1.9262005490823773,-0.3300159880625968,0.25098725633098834,1.4622607147996187,-0.73734689222068672,-2.0855203497454489,-0.34127119764951086,1.5061561383527766,0.98925899567204489,0.30636413828129344,0.59457833451501385,-0.006303488356075867,0.72916055725539175,0.97827360719803169,0.64288712406155057,-1.7382821074661665,2.0507344549958533,-0.7843371516208828,0.72432570208140035,-1.5943312904199129,-0.63823177799646413,0.60909747892282229,-1.6527755445428667,-2.0559340890994928,0.071039784923359578,1.2258080149614363,-0.5376840257911798,0.45016602741317158,-0.90651134384760057,0.77089926603290704,-1.7491535973891394,-0.064941671543982449,-1.3310271760264605,-0.27022960484610692,1.3023784192123498,-0.051130371161174526,-1.3404067771129844,1.3804459707606913,0.36858889639647191,-0.18710792244209376,-1.8315318161205254,1.5806109709709106,0.76663493846210995,0.16727353027777692,-0.65575298612915789,0.48120346813518561,-1.0970472885812581,0.33721528529330003,-0.19164801111874194,-0.23516913461732769,-1.3933930677648536,0.49275003758268127,0.033067895162255855,-0.49766105542230771,-0.4314314468608364,0.32565361534100612,1.2019439111191048,0.24252949596710457,-0.66602281914368855,1.4469834657264793,-0.57359457320493357,0.8896341735413813,-0.78420414037933917,-0.078843169505025873,0.23197286921442545,0.17595752327323907,0.91255859057802124,-1.6839971074512492,-0.21691923302312627,0.44570970987192376,-0.20028066536589878,-1.6126686428948678,0.46214434775995406,-1.1755771387842875,-0.63244336937186396,0.1436838706812219,-0.42590702933672675,0.63772351560815976,-1.5103231851252104,0.81137623307521045,0.0024359959084300233,-0.30614569797603736,0.1235117611863841,2.6607465039096629,-1.1735017405682329,-0.68372749645122854,-1.1866871523262714,-2.1457990916830898,-0.94750699158490226,0.44329513528985898,-0.073906541683519927,0.15990064987162816,0.61805056144656978,-1.1983890629878884,-1.1471888075543284,-0.054614776208083776,1.0087272878252924,0.80430281504874346,0.80154960863126234,0.36197781793001693,2.0647080028690579,1.7824217224349828,-0.3060193768260997,-0.20642745346062472,0.22654202271890003,0.1378499181036372,0.066703441036142452,-1.1275043725393854,1.7857117761005044,0.21520112802160798,-1.9506603593886516,-2.1436714633154992,0.53214570078403989,-0.17359084016785381,0.48420463362710414,-2.854949942648294,0.84245606704336162,0.35252642347693347,-1.0186940637200146,0.13485456785747521,-0.0017947492244584479,0.042906405244780656,1.140623436723021,0.74389602702255153,-0.77977739670289248,2.5181429533303628,0.3032135525179015,0.39985152647339262,1.5543462980960867,2.2070579767727794,-1.5140081203081883,0.065682769410980002,2.3695175851194734,0.42446527929689015,1.9586701769981822,-0.75860066795054959,-0.54466879975753424,-0.22626641781264617,-0.012593570153530345,-0.83367717575980926,0.15668166758405611,-1.7068401750152273,-1.5224358161411589,0.81364003339059121,0.82980968703417435,-0.64936969979217685,-1.7843965038194405,0.40020024582487163,-0.30579335684738623,1.0889957220774662,0.71525636587185004,-0.34729676097747708,-1.5227198768953771,-0.49071305972589252,-0.3791888851211771,-0.62492228263703475,0.93155967553345076,0.024435783514262312,-2.5208354712323895,1.6564410299779955,-1.000427809754129,0.77636099920300028,0.46749685808015234,0.46683003077480939,-0.38239176930693514,1.9557686871431381,-1.2305230670424523,-0.15466140896717229,1.1756210168892451,0.5566539604954398,-1.625347018223438,0.36918233590436195,0.43905086620066192,-1.0723841977468882,0.44985395661878419,0.59793731315459531,0.53022127980042233,0.57550722256812747,-0.4865530363670984,1.1914828873167593,0.61403215508906983,-0.97924844580942283,0.58165070103987038,-1.041735697818073,0.83068937828275158,-0.93341351107254378,0.22702093327363224,-0.097382459655253703,-0.27604332254422087,-1.3031937893045031,-0.12304409994350655,0.6123869766172283,-0.50734823323257439,-1.6439055817750925,1.3130649837648025,-0.48674471949300219,-1.015807038373759,0.01854394862838243,1.3629076114129677,-0.26792164037373345,0.059497648681872774,-1.2715645984164323,0.70755941777489584,1.0569121915847379,2.010911636777605,-1.0403577145493415,-0.99812980293558595,0.063636561275563094,-0.29578298432879779,-0.049874342694123337,-0.044715094892957989,-0.97950770911284013,-2.222699528676451,0.34914333035353534,-0.80562752009212624,-0.2832492841753283,-0.21533532260970312,-0.76358101602456541,-0.66161703293551721,-0.091531313398833247,-0.69210729948593963,0.013591012057772174,2.0028002223795789,-1.1633681397653137,-0.97173738280349431,-1.5418394605693566,2.8870534528638894,1.7378783347352751,0.79162277474736675,0.97197042912674836,0.53254397463273229,-0.018392581306150648,0.23752549530240769,-0.62007627037710078,-0.15217115800541958,1.142867010220513,-0.66539678979337857,-1.5079806919431844,0.76048936005318402,-0.0014014742373220878,0.56218066613859852,-1.2905509669929942,0.079601780461400373,-0.080510306291075737,-0.54918719587528686,-0.20429093102446588,-1.5290969659939477,-0.56414873686997535,-0.55274055237875042,-0.038193338299942474,-0.44139838836334394,1.5689585384760647,-0.73469991881527574,-0.24568484294682427,0.74858467369546833,0.18927444799614168,1.3967363129032486,0.6265021180101884,0.99336482813322846,-0.91429059837570892,-0.89068382759836184,0.29107770874916983,-0.90391542042886375,-0.94579308698888032,-1.3909141500591198,-0.66843801819720439,1.0761285293781264,-1.3774019468193568,-1.6462095905871454,-0.70090345462520676,1.1521884721946356,-0.36178036152830634,-0.33625769824540452,-0.69112635661403077,0.1104092351014698,0.61994082818895646,-2.2345169503871256,0.40104445507543934,1.1208714138812583,-1.3087261943579291,-0.79558016993799929,-0.38239271924726009,1.410936325585995,-0.21217351307502355,-0.96280997110463584,0.49625944492947444,0.010355383798376395,0.064369564849732844,-0.36508504813015163,-0.66220761094441671,-1.6262575477274075,0.6973237868219837,-0.85385802884947148,-1.6799936082469178,-0.46216843461917773,0.048528263070975707,0.76065955884322101,0.1392179627570147,-0.71446303503351516,-0.61395721600675024,-0.30576470293021657,-0.91656792067867132,1.1658328849349995,-1.041147119957802,-0.45057131873314288,-1.8506398278868283,-0.1115742998881144,0.55196772225151625,2.0021009434870622,0.81975183991094547,-1.6745067844576991,-0.61513607001348303,-0.52905785389183502,-0.29895635001020621,0.28931492633667605,-2.126931894698922,0.91684788025559727,1.5845812661705958,0.043172477084886141,-0.25309028444153631,0.2045938568958158,0.29562894327033251,-0.88976901608563952,1.0844657894694703,1.7227449547386655,-0.56671577554070429,0.8951073955776041,-1.2947188525519668,1.0524965991501121,2.1426913912507564,1.0989892922576459,-1.070954953917542,2.5355004922792626,1.0082862631291081,-0.90428764753370516,-0.96787322137982734,0.13665259757859316,0.89109572337948484,-0.40484634774039702,0.54112126818038764,-1.2299906199296875,-0.78719074090238239,1.0581159253399279,-1.9001974488413087,0.0028190008581076413,-0.35935412071142309,-0.72904808051118619,-0.12685505091447472,1.1872853199498155,-0.43399920144780874,1.4426884871496324,0.6175465421763322,0.99996945217649347,1.6291047108776053,-0.57718425266346041,0.99690743315520325,0.35463929530371624,-1.1494472826447932,-0.051417793970871976,1.4499614172428297,0.013453754746324813,-0.95462718258312229,-0.38630766301125147,-0.85057419542656287,0.739610359567072,0.48760616855973443,1.1406892310652266,0.0030521656165921969,-1.9539928674907356,-0.19438570377463896,-0.9013170292110565,2.7691503070975587,-0.9765183850335637,-0.85111639978153286,0.73477755976486625,0.98681942531976674,-1.7679326312234893,-0.39222289428416346,-1.3482109305666012,0.46924384163750554,0.91872287097022032,-0.58949084260550855,-1.0536759200670522,-3.0886916783974012,-1.2822435357148763,0.79916033516063567,0.25124961201635654,-0.29260850622118373,0.65980972509156033,-0.3122603309484725,-2.4908291096819508,-1.6085661714333259,-0.56252290872277788,-0.11945568206967062,0.86636568928969038,1.1676231809824493,0.4043170520147279,-0.019672406768006419,-0.55853207832559648,0.11259110793206815,-0.69707887557418313,0.048946818918399006,0.93664158963836885,-0.96123905149111932,-1.1077714153290057,-0.76201529367615262,-0.26381455544604371,-0.6240877020521427,0.045946166593144828,-0.73078788091161995,0.27368692285472762,-0.76023984967768721,-0.72705981820106103,2.2143456472426037,1.0208820883165854,0.72104746552683896,-0.24946806200780891,1.4240192028645327,0.96424587545923868,-0.024059622573527287,0.33524891320730738,-2.0447243082374587,1.8713183668815483,-0.80145070349930014,0.9901747402093547,0.049481412821614612,0.68682311470072366,0.038188284134601014,-0.39855407026805867,-0.39061025877276667,0.79899364501366266,0.5800339811540558,1.9626428358372934,0.046153725465474089,-0.044249169078630655,0.35471122875070227,-0.74261375348907843,0.55622650919138361,0.6254840025743269,0.3832204574367421,0.67765042755516303,0.51105736351467634,-0.85040661958752295,-0.0082282102480300788,1.3025061225899726,-0.4020062207386782,1.0618363568895934,0.88151341503463987,-1.0668276787640938,-0.3088185837512753,0.22892953425979085,-1.196841606261547,0.24314943103888012,-0.77755917715014944,-0.42654514340222677,-0.43096326820669861,0.8874533259116294,1.6472682869465582,0.36756372847460039,0.42047402501919562,0.47665167504171779,0.1040604200580061,-2.5608084669181301,0.57946551431346871,-0.71268343175111903,-0.35809368117552126,0.027769068763191962,2.2585099310807171,0.24875244931820889,-0.17666596692329944,-2.0198321704871574,0.68026531411053692,0.00065382397535108938,-0.31315742220645976,1.4370289674831951,0.74594869932817942,-0.84209852767297488,-0.96310123024288585,-1.1864066157210842,-0.53351295392469655,1.9627464169623392,0.27721021722774708,0.2684287346835354,-1.8613717386461095,-0.83203752250091567,-0.38423691739231181,2.1581530185074813,-0.20225335658630134,-0.54403835676842682,0.66275291040839024,1.476030701572945,0.58607329431667776,0.15660431087336887,0.6805590288034532,1.1249206334211508,-2.0576340920264991,1.3047525537985301,-0.50556587933029817,1.069344692285261,-1.2765604138400823,-0.92951444360782776,0.49494523717578359,1.2081903424497986,-0.46994042416265469,0.089541240858893256,2.8963867872411591,0.35356806704018662,-0.31804915376159304,0.77597551452860969,-1.1504557343085229,0.080039897849666919,1.5000887581809521,1.1456737510032002,0.70087575119829226,0.032997118332753837,-0.70496463834581213,-1.8619339370291423,-1.3107977034802827,-0.93184254120071064,1.5011553037371772,-2.4937565500077059,0.94334685214349434,-0.92130997975597184,0.14094217844178372,0.57861082337751435,1.9783593855142123,-0.53976819061335235,-1.8061230202755418,0.22020657676611469,-0.69305424754294764,1.1378267760978189,1.2186200087197125,-1.0405223112817157,0.11602166820533821,1.7285192712615012,-0.65002635494794092,-0.73927628203650864,-1.9896982838311528,0.89776195359965294,0.187263071624409,-0.35918273490829211,0.53741613247883269,-1.7616174215396319,-2.1569664957855466,-0.28099071589679991,-0.52028907243778466,2.1037617502217874,-0.85548113813540838,1.7168192416861088,-0.45537152109167423,-0.2200765876834965,-1.0440826156444556,0.11293857788891291,-1.105817804117051,-1.0903695774440481,-1.3276919303733865,0.30459475074437886,2.3993257045583389,-1.0194489274498642,0.32347256911149963,-0.8220381435869849,0.08776320666031362,-0.12274053653511004,1.7996806475231648,0.88418377185313279,-0.30257528746418449,-0.32650773111610443,-0.11417471404921893,-1.3730289958538329,1.3333026804111487,-1.2859249692223587,-0.0012458084538938046,0.2368801230851546,-0.70311385483638855,-1.0183422625328711,-1.2614160816301208,-1.4802487145932872,-0.44409274344392874,1.2810824877303868,-0.2718573047970958,0.34082971644169074,-2.1767539469083741,0.47166733899652152,-0.92428078596906738,-0.95047271655126453,2.2575775151202113,1.2743214491767412,-0.3638258737962955,0.51345806792348658,-2.2760220404990981,-0.10263352549131764,0.36339302752503405,-0.39390744637580422,0.38647713831343827,0.57743324412331798,0.94269531590958056,-1.0060260541563482,-0.10817033679951418,-0.13627097775071997,-0.8202294575559802,-1.1387161188971497,1.5825594683637143,-1.6323115972377642,0.45394574446597324,0.66769557543633229,-0.50445969676931635,-0.40848808175706924,-1.3361750673016703,-0.84530352339149306,0.091303772453110957,0.22552046011301952,-0.71341335380135185,-0.3154364220339777,0.42142707330158102,0.82377812458703537,-1.6011607935844432,1.6608800376548123,-0.0015213037312070282,0.10834788514884058,-0.2217654373234631,-0.30291840460726527,0.16055308024210765,1.1264693636195535,1.0774938791093172,-2.2357246048909039,-0.16809837019955307,0.7204142954406435,0.52342976099677241,0.19610654566767879,-0.80486288384783211,1.373830598808401,2.1114054260943949,-0.18784891922939137,0.43900548688414354,1.3277346376032468,2.7223684871952663,0.077910146765737098,-0.93508028198177173,1.2458119154588028,-0.92779328018748808,-0.54056613633013695,0.22638040779817137,0.73842887083688824,1.7527907324579985,1.1593952055277095,-1.5938425160777392,1.2657780472110309,-0.28121923110425823,-0.83309634903423346,-1.4150856992523964,-0.63317909648526549,-2.1421591842605965,1.6956750473913136,-0.63977437053209318,-0.20874442941199872,0.21393081005261755,-0.60557930780147451,-0.66516381389961232,-0.70418982582474077,-0.68869697242143046,0.3958877112009625,-0.52570210731062172,-1.288533497605574,-1.4178065597306517,-0.30230633069389234,-0.010599241022231592,-2.0972819317319797,0.24577553000861416,-1.1826703516429413,1.525513686528597,-0.23339588973079012,1.9247497967685621,-0.077864132553024989,1.4624888351963881,-1.4596908327153701,0.36186264885849623,-1.0879207142943534,0.79043224814094015,1.2166284728145151,1.4064316146729807,-0.13920788619175614,0.52448885081947871,0.51764883442375542,-0.24465745207339523,0.075543063524533563,0.37607642504149696,-0.20343297357265344,-0.98400849172653693,-0.52336579270382888,0.092934457933012526,1.7993012110732476,1.3780480989456432,1.6106794219701979,0.19817960522130348,0.6948865897295482,-0.9011637258980395,-0.26797233647674729,-0.36177413689054061,0.53517900513513195,-1.6258677288269825,1.0754265608206139,0.78270711685822714,-2.8770078618778157,-2.3943362115131515,-0.44268536086538812,0.5822073128822649,1.0185333521858075,-0.89872693903385958,0.20389763851949785,0.82470453625186657,-0.35947043900230341,-0.51060048641607891,-0.39861985824481277,0.83176106747117051,1.3026756879298176,0.21774692782049948,-0.80983653129257349,0.33129425421450343,-0.7904034713798328,0.11261360837545588,-0.29259826281778611,-0.27433668639547459,-0.25443583425654853,-0.76780616790595146,1.4020594441742569,0.35679597678554587,-0.061849869292086634,-1.1002737291045772,-0.55638087496630861,1.3865083414939392,-0.24505357418943929,0.087154540665578817,-2.4879530419419895,1.0570071760709105,-0.63223819182903807,0.79017798876100276,-0.37318896160742004,0.3719330601941947,-0.38818459421618412,-0.76613468577484278,1.5256798258829773,-0.64825120510806788,1.3908941858700365,-1.4568979054238422,0.87850505840237969,1.8597805820166977,-0.64949360988829219,1.2869743055756486,0.92077385565899417,-0.75499450294809189,1.7220828314741261,-0.97394976787299981,0.53748618254335923,0.43770199403620136,-0.93888731960028204,1.3235588185529661,0.47243840401470211,-0.36552351298704466,-1.2508046732879332,0.19965419413740565,-1.8314324821578229,-0.65038868891262647,0.5117363217785329,0.59775003817297956,0.3342511859456509,0.28008082559208602,-0.3454611361692706,-0.35247885691481223,-0.76174904511022801,-0.92672361578140061,-0.26877702954731847,-0.80505614207738596,-1.7653398699454061,-0.2203344762608028,0.19016032053874621,1.6729871199666952,1.2129719465936748,1.3442782042035291,-0.20282544287381257,-1.3593125686587109,0.41227582633418519,0.91711066973024591,0.45516458227572715,-0.13755914409356024,-0.053577540320737742,-1.4828107401435968,-0.90375704003021928,-2.1455745267709991,-0.88640552567331177,-0.48110538447006457,0.34816452743895931,-0.057616748287811034,-0.019602471667945185,-0.38196478903927511,-0.035886733135759276,-0.51956343913189784,-0.83739391128816221,2.1809986001369674,0.74572231100973885,-0.91189480432331627,0.011617044986156049,0.26941451597007127,-1.746133439756502,-1.1639692738210541,0.049697921791390619,1.4087070547713259,0.055461401554363687,-0.075034575209469073,-0.69117683188750245,-0.11853750481535795,-0.34180196989299472,-0.75497050614214001,0.15027069053843856,-1.4450372262629767,-0.55684725911817512,-1.4108821591557479,0.73604878558529874,-1.3151101697190284,-2.3861861608947859,0.92350853745848416,1.1191344984730915,0.30978607951223991,0.3613421157960755,1.1013388291376343,-0.47742899475216222,0.11085084898583165,-0.52455299104992592,-0.26819981875452664,0.35158409108987476,1.3363282101857945,0.68069545712155166,-0.24994074826603005,-0.37721956656995387,0.40893332721806319,0.31551128192848121,-0.96673889123015022,0.87595821501788673,-0.0075659416786354175,-0.34142450066874291,2.2008242207736766,-0.25943178608425416,1.0942380168378145,-0.090887545944884657,1.9046784365492009,0.31316755937102841,-0.38746296677781789,1.1448360431734399,0.18573613292303948,-0.40058767066224532,-0.91044413457754292,1.7848880006759869,-0.44710525792164407,-0.43361292995155565,-0.20008105800254816,-0.20383780652810093,2.4859639386061736,0.30379436716908698,-0.68239102584962075,-0.039129990843031343,0.67315745097789026,-0.75833187989232076,-0.29288470792170662,-0.34149452858161444,-0.40469922406209419,-0.71941742887545701,-0.11013573905402169,0.22129661862029287,1.1739903825685916,0.37858580408173714,1.1355335334970087,-0.54675811915575323,-1.8123737738668113,-1.246904383214793,-1.4150275157663625,2.846154114742053,0.653741333136304,0.33249887811251622,0.55126981786824825,-0.51028505324571272,-1.1833650612190605,-0.89802021501380513,0.81561058072049586,1.2552477394323671,1.0403692019936119,1.5647682454149971,0.79753591143121594,1.780413667731231,-1.1295191402162503,-0.88006758205181079,-0.12791010696084087,-0.55787990945358445,1.3874730273905069,0.98250731443991857,-0.04909074276109468,1.9439368528868575,-1.057539085076344,1.1199608011153532,0.57577005242354184,0.45999004373087721,-0.7274951143700823,2.2022663280266146,-1.8830865875742271,2.2859146662540191,-0.5190345487184348,-0.75837788165170916,-0.6019825272685847,0.43979119646530324,-0.3088511963031364,-0.26373583200110706,-0.32070704425292929,-2.477377528752394,0.09801934691971538,1.068501543798549,-0.6677651354003834,-1.6024302724130213,0.37007708318968913,1.1813605487735688,1.1059456797810823,-1.1935173064663205,0.73358019538412667,0.27844369681741199,-0.21213762958862095,0.47917625057309249,0.63449227879246484,-0.29380808866571573,0.68225699929713512,0.10992831553714567,1.3930300169755463,-0.63223677168087433,0.73176090539332805,-0.33007475751329701,-0.2365988613592917,0.59254552026778295,-0.71475731572245849,0.70751189151106508,-0.89650201128510199,-1.0266893603359564,0.65267157770228401,0.14685961571831155,1.314695456677855,0.57376893520678718,-0.12556113852493903,-0.33792623519867993,-0.050708275572575671,0.18265515251668377,-0.13751477871215018,-0.56444402919563197,1.3476578766926366,-0.73305047446280935,-0.31356030290963133,-1.3484076498162672,0.31911341079899253,-0.11137885493011608,0.89991548733504179,-0.068602663699920671,-1.0131169289375468,-1.5914233852085014,-1.3810708079826992,0.88132165374796301,0.16426446410315412,0.65217160191580448,0.93583510966697303,-0.62380619242821822,1.0246787877088832,-0.70302426790252526,-0.62329314239539713,-0.46997620668412959,-0.51711920327679217,-0.55981779119624142,1.5044847297959465,-0.26008962838260863,-1.5206075569355053,-0.98984153590237334,1.2288563425543191,1.2249147940446008,1.3321734316409253,-0.44181326002617161,0.21324894863580243,-1.0623521005147443,-0.61879973480702222,-0.086284561659946649,-1.1599851500059206,-0.49747355580472974,0.86457269155466221,0.53894557714817881,0.025424294283775493,1.1417811671459195,-1.3838314805932037,-1.3721875111101021,-0.053563870297924476,-0.97851226330350649,2.2373404847246436,0.2986231824453135,-0.21771064230680734,1.1174608277851932,-0.31141197010357269,-2.225807420187921,1.7232804775512565,0.49803259376946879,1.058665381842109,0.7677792073431513,-1.8512330092654119,0.9035270692953471,-0.4107865973219384,0.2420577098091492,-2.1217386750232414,-0.65260434798341949,0.9279267882713591,-0.37639090695706895,-0.37816996915298495,-2.4357594020542161,-0.67038991540062487,-0.42050019186798865,-0.91010195328759746,0.91658516744816754,0.25222139488420897,-0.62971553898593402,-0.77681702450348555,0.74257205354245437,0.62015531234985988,2.9963849527406792,-0.64640602238116251,0.65471297520832072,-0.84483166054350456,-0.82752711283191138,-0.91301762166065459,1.4177633717438467,-0.38168436378358467,-1.4625145423018842,-0.75516265215682177,0.72163316937010635,1.0246803997078187,-0.79037779089239268,0.38400417672737691,-1.1285791949048054,0.18782763231414726,-0.77842347469678408,-0.41681058858263853,-0.067030367776995878,1.2793381545642781,-0.031093933667413587,1.1173415499061397,0.91349774299633424,0.030620695330182551,0.32416351845336122,0.25914216844483973,-0.8735748025231973,1.4004757468538345,0.019034418676972729,0.41310568049348229,1.0247232020555699,1.7043291224649688,0.15495147747363922,-0.54788416454510658,0.52877106036086308,0.29942513677197374,1.4120834497546229,0.12440067884554958,-2.1682047148541783,-0.11523014813316072,0.017177147254391539,-0.93750389005843382,0.62725127808921732,0.57693101048405204,0.14981708180472988,2.0944017039060476,1.5457742901554534,-1.554034238525895,1.1847341800093767,-1.9412779572345522,-1.3594754333755075,-1.0012098111809078,0.33673547851107427,-0.012788854466350853,0.3974348902309317,-0.53020864812308333,-0.027069512130739218,-1.7394695123895918,-1.1953460380516205,-0.54108998453305091,2.5100518715575406,-0.17592291395975165,-0.24635213363305022,-0.87086560781532418,-0.54470353885527611,1.4961998841263888,1.2170957385352448,0.16043228183135752,1.0283865895431799,-0.23051600577516185,-1.0640507383587985,-0.91271095143221537,-2.3476099663246144,-0.3908479584318052,0.24537147481846791,-0.97859727851875211,1.7793144991838843,-0.93837035116993217,1.2642680956224903,-1.6804761000954311,0.22986876677466311,-1.6415550903203113,-0.97248134852218426,1.1966538313593014,-0.034141567051233383,0.24311344558550768,0.52355714017270749,0.78919952507298996,-0.70896891013179097,-0.76931338268862837,-0.98340752821817712,-0.23085033612224765,-1.2825343772282471,1.3693409617497694,1.2950880404674636,0.77676172152775458,-0.11358385734315708,0.61068624554992323,0.42945803924517661,-0.80032979360023737,-0.019269288142328676,0.18611495553052135,0.12157934300749837,1.143501625526403,-2.8343932899540407,0.51061128805745193,0.94624467084219455,0.81381224939215857,1.5033839348377886,-1.2484785093847306,0.50386573985270477,-0.10024758740750443,1.9473385552616442,-1.2439753210942517,-0.44859966224076953,0.073267888411411575,-0.30349626133908519,0.094227569754872925,1.7369131643724482,-0.3176938317193761,-0.1505297032209853,0.75781432278121552,-0.9370528028309203,-0.66231626867822702,0.98235773328973797,0.27281102079065556,-1.4167760720510314,0.55663623494367021,0.14683991731316665
1.316220379239238,0.13574461664808388,-0.047023941503847436,-1.5097005718648357,0.95733652250212531,-0.83981529578131942,1.0831750232915107,-1.5428151922470545,1.3597525548294238,1.0589550197627475,0.050211944689004057,-2.2593828963380114,0.0095748234259665447,0.67468662050323969,-0.16928560575479698,0.63558052184549596,-0.75112367390757073,-0.22077825877199447,-1.0049870573421134,-0.47181726097730381,-0.49224164863709302,0.55711725738998452,-0.11259328386593792,0.90948812043550087,-0.41155508508404359,0.4154369013720749,-0.73271303148367395,0.85269456972684432,0.0040679290093274534,-1.1188706637857488,0.83434461569081997,-0.15986756412057007,0.009315714198430438,0.68434524451431833,0.18769504575090989,1.1430188737537821,1.084546124127862,0.14112805505457751,0.97542274639592097,-0.17742034458181313,1.4332936756176973,1.5939526543564528,-0.53722517838922157,0.90006993614511921,-0.3715893187774712,1.6527286827974208,0.49945012168086206,-0.19552037460759522,0.49412785638266377,-0.40779453855064252,-0.4866280506016103,-0.020755551316593023,0.18744965479341244,0.1285824120817684,-0.45546300196505779,-0.053697247495667393,-0.46772298560780579,-1.0373684197114958,0.13158577680294894,-0.3520461546434997,0.1295155034567228,1.1012432188121524,-0.44173534644384915,1.4538022722556749,-0.69136034361270282,-1.2047844215570815,-2.4084835508116047,-1.6019802878127221,1.94273200998117,0.71117004394642336,-0.5063256385926399,0.14865503566524105,0.29057413014108291,0.6720728564053422,0.38173804046933707,-0.163131893526681,-0.040488959953208524,0.57701287615486352,-0.16289993093079747,-0.19326575342102895,0.32254716727184268,-0.75702624848537414,-0.43871359257377207,1.7701387565927189,0.91168154568944837,0.024919441693023826,-0.44385740003725421,-1.4229578240486587,-0.44826860486592907,-0.88705792264848449,0.16376890577193293,1.0488196404964514,0.90968389896206681,0.16692547394847293,1.0137707906061888,-0.96679750382846807,-0.71873313012100115,1.3723814972785333,-0.37068192558723156,0.29213821037163928,-1.9427730796495148,2.1089937393326998,-0.50813951636632249,-0.014017136946797199,-0.86701251345619812,-1.8354766543060534,0.20648613043900441,-0.15119619382382599,-1.5476816462741771,1.429407883517348,0.48610555879698431,1.7319397340560643,1.5673929403044045,0.80741434711370175,1.4588327943303336,1.1719883827269475,-0.30166526437831448,-0.33648476746564238,0.1321988900781545,-0.25254960424054618,-0.55509574000764095,0.94300987371093103,-0.51230547494141598,0.84627770465704255,-1.6377036111681724,0.4222381685385716,-0.45732515472546942,0.10127743818880849,2.3213352829214591,-1.7880052498557508,0.091241083196790529,1.1942317643228506,1.6419214590534592,0.77827535927111258,-0.88596792188558127,1.5735672309832911,0.058531452216687853,0.13470390119836928,-0.33165663610078994,-0.028014555991511574,0.61190763995588049,0.73885748400433626,-0.35237001812420049,-0.37824287536678075,-0.91779644663480209,0.99605709462870096,-1.2676412513702724,-0.4580839746103762,0.16085473574269837,0.806957553844449,1.1453644524031521,-0.27716490205499483,-0.23708987477998625,1.0014875927918032,0.24062684375535148,-0.19107294384407084,-1.2397748391287506,-0.61242441086420252,-0.12038122797456551,0.59478540668125091,-0.77262937099799267,-2.0283353696363493,0.74372113223284586,0.57519674113097563,-0.1740053723535028,2.4008253450364299,1.5937550262353108,1.0934411358893492,0.83286680747162134,0.74220045909991883,-0.81834773233997549,0.60620702369832669,0.17962984830461529,-0.88751129536443796,0.33486959393848387,0.25261429368767069,1.4006804247704592,-1.4537311164812501,0.56286006649061671,-0.15809380815344726,0.29987451182912622,-1.0724826905611302,-1.8582244574194147,1.030609233067753,0.32965352391209379,1.4757488369755789,1.2794305283403791,-1.5211874511229697,2.419891745753012,-1.5019713914579993,-0.21768399456874288,1.0416996975540507,-1.209248014157331,-1.7401832459259559,0.27303775489534587,-0.16334639266381851,0.98948201537056013,0.79392538679572888,0.05019938091892074,0.55952459269176968,-0.46196402822308041,1.0922779048723041,-2.3652544638771915,-0.00059219070932950521,0.40758336351997076,-0.86930402267680162,0.55999888618196703,0.20524170512167059,-0.094880985757013314,0.28435887100845936,0.71944912613464007,-0.95711195291366491,1.3853508891584285,-1.4417075811290436,0.74014752279517249,0.51360062679199736,0.84985633404691163,-0.051821542943060468,0.51150660718985974,-0.60793463889815713,-1.34869605225942,-0.39228105055268209,-0.24238743282307806,0.16800926168711522,1.7942653460142988,0.09091261471808415,-0.26599760960911323,0.57751679064814865,-0.25512880850237712,-0.44545960235449561,0.2825279751933662,-1.5747767535208947,-0.76074878149800029,-1.2240840448554526,1.6601718418753939,0.37005050813026252,-0.042443703452107684,0.39248232330168981,-1.2758360692957478,-0.023410620507249777,-0.68429304290088988,-0.67986462227186795,-0.55236934441535035,1.465999688004056,1.1425642791038815,-0.34386334372254496,0.58611662868477099,0.36537734756492929,-0.06515907892500962,-1.797698680515976,-1.2946525084067504,0.93404263423650646,-0.58655420536037828,-0.39543297751885664,-0.44041828427084373,-0.65277903037088481,1.1885913236722219,0.91133009351279903,0.26018054331918766,0.44308118487028808,0.80068383527584486,0.090380985455533996,-0.31815136746360229,-1.4651097894739,0.62512322230164785,0.23165252016809151,-0.51757311710778109,-0.87904125327428106,0.3868820808589104,-0.77493573083639589,0.1877729007507597,1.4102349877293285,0.80286023451669575,-0.40143491990138358,-0.17797918869992657,0.50843158826482493,1.305418943588847,0.53526018649533824,-0.36622014781679674,1.2322481191345032,-1.4094970246812746,1.1966524088468651,1.0385668713362495,-0.54623705634584507,-0.77926176415641957,-1.6390204118914498,0.54405583843381478,0.050952623134397586,-0.020237711844874551,-1.6830306580693122,0.66682928415756826,-0.31593499566612115,1.203721812318379,-0.33851175619729329,-0.080738594119582341,-0.60349978887050271,-1.2771866638233245,-0.61171819244614589,2.078230350418472,0.95304834543949712,-1.8788439398036649,1.9082708949909284,0.90235272374315001,1.1421505851068428,-0.34185554991136485,0.82289260027397515,0.15833158490970045,-0.47806312751067126,0.23758157040675268,0.26223562346258883,0.010877352604611866,1.4665271310851504,1.1620632728775091,0.73593856879531017,-0.75243244436881962,0.28892312890168453,0.012804427157139607,0.29515543295260077,0.12749660293518522,-0.61689190318420639,-0.77939959722371599,1.5303275851263296,0.44089350937512245,-0.76839026019283074,-0.94350830515073769,-0.2996076416000959,0.86626414386858996,-0.82046787173811253,-0.78266355083004513,0.12570714071244149,-0.24184789220806277,0.63670596780819555,-0.50402400862164187,-1.5043411258605057,0.2600991766881281,-0.84297777186172762,-0.90522806300011405,0.52426647132988113,-0.74930896835159633,0.70030417910239007,-0.54919663075805447,0.27354960103888543,-1.2324079739273168,0.15856933714419827,-0.065608788652032846,0.26901301289072271,-1.6119898953575993,-1.1211318188483397,-1.4134506591230678,0.40186279818581744,0.27420254225237461,0.23087826610976031,1.2259164326031418,-0.46707438043362176,-0.3060389978078305,-0.25994077676182736,0.32734313340432658,1.1087246997481197,-0.42850301891530285,-0.55525877338027529,0.58743798477321074,-1.6202719635755665,0.094314268819502625,-0.74257972342255574,0.15280240292181171,-0.081595361399863162,-0.9819622878504668,1.308450415997245,0.95316750443123799,-0.43894427770554417,-0.53996827433985684,0.75738114630768494,-0.45986097081637861,-2.0612052703413264,0.26690201397645658,-1.9315842896405799,-1.3082572480995867,0.87528018595203205,0.24821595146932515,-0.10212783566255636,-0.81424675731202323,-0.37230218082006333,-0.19063290706410843,-0.0010076178442647475,0.52782287510592685,-0.84762243873927001,-0.90187275332765127,-0.68294620122732097,0.42506459859047063,-0.4813822837456696,0.26298717073435918,2.0741127377083184,0.57109178837979557,1.0260857460489072,-0.17774412067689996,1.2125670742383658,0.69360079360686355,-1.6451990366655393,-0.24515640581632431,-1.4141897578723355,-0.62009148532934921,-1.4007599444503791,0.57219212233297245,-1.0194892474194048,-0.44758040466005411,-0.57513708593523927,-0.47450268721814626,0.73968310091190681,0.25916587318629192,1.2877948885025696,-0.71211244218554859,0.65051925026332713,0.49399318358389099,-0.47175515276457158,-0.55421037777719417,2.0891758254413064,0.6679845757915166,-0.5977514659938381,-2.0213639386884426,1.0573501988790421,0.87208372979025095,2.1040700213518395,0.89670301628387261,-0.48722330673470093,-0.83877685319502093,-0.60051282642202186,0.87828496843430937,1.3619187925052021,-1.1686112452328405,1.2429827491345318,-0.88613055751668146,0.76368655052164114,0.16971877822190462,0.76515806560747557,-2.5559591491827027,1.1502840787133146,0.82719514179727771,-0.86078500889414111,0.81323969684130959,0.19302483446601032,-1.3965700944253241,-1.7396250065854617,1.2119840670857593,1.5419918459368622,-1.0850341649378117,-1.3081410888531768,-0.82015341402256836,-2.2191616367021019,0.31670939083887106,1.5161216285959627,-0.15575296964097179,-1.1860251605072114,-0.37515994685757942,0.46940522979006077,-0.81491893524835191,0.42966524719688892,-0.55264422495702425,1.2908527737878059,-0.62352614745877677,0.97005891222155594,-0.42198036039197967,0.76051357132519304,2.5217287977962495,-1.8557721525977811,-1.4507016552483318,0.023098023242769661,-0.64214889254237517,0.10425768074190336,-0.077133094134131108,-1.5903095047007101,0.15201052287346115,0.97132123335393328,2.5112992621999219,0.58576946366456462,-0.66133080934048616,0.0016511025562117409,-0.95415929018980072,-0.46358721090213439,1.1526903089781393,1.0725299635292154,0.89833156091637634,-0.34864520930133253,0.27700725730675868,-0.82870063400322536,0.54914899025565933,-1.5727598299763792,0.20963238623360125,0.57683783437545477,0.74396827337151816,1.8045621184108902,1.140970295730896,0.0774810527805323,-0.11384709796217958,0.7174626816960723,0.12958177349467695,-2.2195570573394354,-1.1308404368024672,-2.2164097194024777,1.0757768086193542,-0.26549335196080864,0.083511160897351472,-0.016087475662309721,0.24270350357473797,0.36336464383567918,-1.8580529458088701,-1.9798628538104774,0.8557701234415499,-0.7779935912548438,-0.2480459291480919,-0.73534420242241072,0.14498382595767587,-0.28859320305690583,0.1244036749245187,1.0139064030080962,-0.66730251207523805,0.99369283241288198,0.84358022267772814,1.4008793496167704,-0.81831000031462131,0.31161305586015453,1.7591068622355446,0.77946394507785821,-1.1580175051972807,0.58915844556927044,-0.37385233288504571,0.09171457759910491,1.6865433934333125,0.30764798820026656,0.20939662327378547,-0.15023242466073528,-0.60488776333427574,-0.6577509142232949,0.78117763066449541,1.7404146699947356,-0.79766746482403816,-0.5835874128064904,0.65841160482083971,-0.48850166737072354,-0.14227373447905281,0.79347460177197704,-0.78361354333022126,-2.1407231420095916,-0.99084970602737499,-2.4531534821249013,0.95592413839603574,0.52953875951281915,1.0770997945224701,0.83685660543804252,-0.21322147133277614,1.6756780587569007,-0.64930499338039493,1.0569548835992013,0.76552402268922548,1.5832128530365206,0.07637689852295132,0.67726157374303775,0.62430877918980454,0.53995938175051739,0.83909898923635906,1.022224393716791,-0.69083862949209651,0.46916322714173325,0.11507002770792528,0.023146812832380032,-0.68776407627660996,1.621457509521802,-0.83062096180549327,0.090792406123037378,-0.61227064174267842,1.2075162821677121,0.69412675330092788,1.0331571275370033,0.14270760341349387,0.080324337584227259,-0.16089544269284636,-1.9380448372557557,0.67642883450057689,1.4465617418766032,0.36332777489246793,-1.680777390898903,0.28687784239537256,0.54047943219040862,1.1563516571502028,1.2324848548423386,-0.65180666187237679,1.7026478478505886,-0.10139116205842061,0.28056579468260484,-2.0594114679593947,-0.42268131652046476,1.7505830247569465,1.259578682677454,-0.21989112576462383,1.140962304804805,0.65708025271495463,0.43009030126899217,1.3409006053598911,0.19837111180224573,-0.50740503657353897,1.099891033206412,0.91737922908665703,-0.96658433315093573,-1.5430150524784767,-0.89213034736701413,-0.35312489209929737,-0.1064397562566628,-0.037985493028615328,0.45248509151634614,0.39580161679818904,1.1725167917869783,-0.062767888738108402,0.36094159291517841,-1.2313860851824352,-0.45990576195190647,-1.0406834939942413,-2.2279826881849534,-2.2261274988549302,-0.21367574284037519,-1.2939717946166058,1.1298703115511251,0.73397859000464505,-1.600416432256752,-0.44287161136641884,0.2828737526705854,-0.34552879146057464,-0.2995089927772096,-0.27277052960391757,0.79615647059033379,-0.87547872475795485,0.60365911815474937,-0.10367417747762436,-2.0665634593214501,1.7364217307744589,0.46152598011002327,1.9324311370728033,1.3764869835614184,1.2486717003377736,-1.6089077483412249,1.5081901321567961,-0.43002963333477562,-2.2004899578866404,1.5563297710055441,-1.6787123140775502,-1.9117248669306797,-0.11243911091693767,0.62526002911576017,0.15680118093789369,0.55301670538374792,1.9507114882958048,-1.5153511143033811,0.48572442151150719,0.055336928306121497,-1.304361206933893,0.11312716606626491,-0.29414108246858417,0.79894354499170972,-0.51680920254068219,1.5957902616577744,0.65372921036950649,0.53435903367869919,0.2349133752595271,-2.3405946224029575,-1.6253932072095474,-1.0027244552511076,0.84290727077493932,0.76332138297847241,-0.46581718461137767,-0.10590778396129727,0.60708808644712375,0.4303356113122544,0.075498983258325311,0.83026790707359677,1.3407290519558919,-1.1951087904349065,1.4304540746318291,-1.9828320538107909,0.78133080184122516,-0.05886102371806258,-0.80992381791882329,-2.6035533348514397,-1.2341221928008039,1.7308834436490061,-0.83147740459513897,-0.35471037167107833,-0.67665288313347327,0.83443845103890169,-1.046453986253967,-1.8474311988849954,0.51649564322346431,0.55518274739445661,-1.6190911010869329,-1.4135814230447632,0.99549695058827059,-0.61369920366592323,-1.0499116952051708,-1.1085610432997481,1.3844821222922614,-0.10857371301829963,0.061861049324905992,0.2869116100124065,-1.8200190957357931,0.99867698063763277,-0.75524281722818754,1.8950066782200194,-2.03160677282587,0.018737435216742915,-0.30920251085905992,0.65429894597946781,-0.47358059579237838,-2.2076663990371164,0.6942016752012613,-0.70475022763106676,0.32254622967009111,-0.47338607453122378,1.0000437236507798,1.3684399418184536,1.3538703799791296,0.25872035035290969,-1.7690083441751949,-1.6010024723827183,0.17291765588803071,0.84494597847700303,-0.98701576858261597,-0.36342516501455702,-0.94541793600031099,-0.85328556129309241,0.40023252716817986,-0.95849380142408902,1.0674409884645155,0.098382325288332129,-1.4594075045946704,1.071360823504683,1.2842019363546247,-0.53687657886574824,-0.85009047807522609,-0.80928643461320837,-0.93589320004789323,1.024480195135496,0.94381746503073838,-0.62318396866985104,0.083115707077335399,0.7050166544137566,1.4272808480368904,-0.19351592438066487,-0.43113026855412595,-1.8393633854408362,0.50857666496221554,-0.55293361824196841,-0.28848904285128263,0.29317958185867043,0.36263611015810948,0.84049308233087128,-0.043620283759375836,1.0862219642936097,-0.23957561188517687,-0.10984192794044174,-0.29163716629952063,-1.0193613307602352,-0.55847881672336441,-0.040210413044748095,0.32748511093789534,0.81125599669460025,-0.76583555154203198,1.0984578821043747,0.92420678231284414,0.15890599015010443,0.9999113209685474,0.52814939923217818,0.95877296412328572,-1.4100177720061484,-0.52808174249788953,-1.9304884149528472,0.72393519924267202,-0.037750331171834434,-0.61798120699403247,-0.38513599520966879,-1.6192770421194311,0.1706404230143834,0.23221300977220749,2.6453727096132864,-0.82345936228881311,-1.9115166281095592,0.88293207341853963,-0.11789891175245457,0.1626775845389983,0.79769401585399813,-0.58199058717267393,0.15878298467937804,0.039770281677677412,-0.3267653075164445,0.23090697157857659,0.5055541516341997,0.31871971445552277,-1.4459802210270334,-1.0251190751557993,0.36396590431769943,0.68841542088177299,0.20667378068054426,0.88341067832706444,0.25529770053895756,-1.0921749647897754,0.72216692859054632,-0.74546217474673904,-1.0140622614190253,2.0368369243954754,-0.81759520253491658,0.078349290416986919,-0.90829491863402689,1.3936251070841823,-0.65305287947571888,0.66564174421084554,0.26863238130068184,0.063178326826545964,1.3352694482562386,0.54404373626547275,-0.33937937787080841,0.84853637733650888,-0.90917206089027036,0.069976140358453509,0.2481490330327952,-0.71364791194905719,0.26740267536400747,-0.33864990612519807,0.79628743211477859,0.086145622980475553,0.86633000795876058,-0.6845290069655865,0.77428735558982886,0.77296225804774188,-0.37120532819084329,-1.2570872475740136,0.91430639950995918,0.69348966184927685,0.29828643522475362,-0.21790459061851503,1.1582647156866868,-1.4106221642566248,-0.1091886763387751,0.072282045704754758,0.37153612642689449,-0.19149817869045191,-0.79035269079579873,-0.53050630651524577,-0.13103112019018792,2.2322775122475473,0.74428303014230057,-1.0281562701986724,-1.0165013181236411,-0.54085486398008031,0.10586943356041864,-0.035559483216179244,1.024274853965621,-0.84995737469201849,-0.23794431623421139,0.8195322629256,-0.14489889086456492,0.0060708147187393336,1.643215810218569,0.8114580137865951,-0.26619359778424956,0.093518652949735437,0.76537657797725778,0.017713718753998485,1.8224182898321535,0.16437128192304423,0.77192659771631089,-0.61834475215744578,-0.49517321045252599,-1.8431700046654651,-0.10574747104028946,0.54398167164333788,1.135065943522898,-0.43180353333471483,0.45135270817470075,0.39604141752821326,-0.58105119099079805,0.86161911838045879,-0.70587589105503534,1.1903613250208049,0.27519395833347698,0.96011131626268809,-0.078695444481850063,-0.17088817020953337,0.75917697908572634,-0.12239392754612387,-0.30646861389932273,1.1736871852579254,0.18732943032525776,-0.53654340328127026,-1.5096157009956301,-0.70146307941506481,-2.0159955400682397,0.57732971895626961,1.2186737621875019,-3.2938289819571982,-0.68303505267473541,-0.69502510434366627,-0.056266115459406407,-0.53031836971156254,0.58442333652382827,0.66340789784284193,-1.1629385183367367,0.52045253717572793,0.62009260292173352,1.2454283453664312,-0.52615266631178459,1.7160874115793976,-1.212788196949901,1.5537524053460448,-0.28839936699538832,1.7692419053690194,0.59307611606604105,0.014637791327263901,-1.8616173641570108,-0.14356816214313792,-2.4386287257330332,2.0980163537407814,2.3668500074014651,-0.47106038026467001,0.43391124123538294,-0.24589732956375235,0.6260776236486999,-0.4409183458611291,-0.13831014677151124,1.6231567670064124,0.26154258751496173,0.029445587618458526,-1.4868767700064398,0.12471223564613926,0.48418411417259272,-0.64235740662459573,0.59075043089622703,-0.62471648423597925,0.779769570355898,2.0754700393433914,-0.64131511952858788,-0.35891338474798828,-0.20556590418865717,0.79198609779169982,1.703444010310541,0.97125068642736379,-0.65796259779714728,0.47920954239876284,1.4143369528107972,0.17645580561811894,-0.27295065020109033,0.76391430006154137,-2.0932153727730842,-0.73631895546696857,-2.1927543247424959,0.48550818701400145,0.97044709678521679,0.20429769166036416,0.73609303140001914,0.39075968585659171,0.77102905855396275,-0.33939685187542851,-1.5586038332513141,0.36376354449443549,1.0661834514511832,-0.42034310583382833,1.7909660720639498,-0.059191956664533904,0.16412138629020681,-0.29461509002774322,1.2614902263303136,-0.4903503465101533,-0.091353437989098285,0.35864788855425145,-0.13882417539773972,0.93278488190546194,-1.156073206268132,0.86078601448005421,1.0937179219036801,-0.3099255751639618,1.3442991276912477,1.0420758350102657,-0.13306556886434664,-1.127583228476593,1.5436088898401503,-0.055331325611594991,1.460790814433341,-0.71924805501776334,-1.1626039519237188,1.9898043116142683,0.67640373476782667,-2.1529069289152063,0.32578812106233629,-0.25828636506456981,-1.2248737189653558,0.84583387491057282,0.44617041983225553,1.1956508874629201,0.30196494626147369,-0.43057644540060003,0.15219957867546433,1.3591885467028857,0.13978851248595406,-0.16935463261448191,-0.53688408889688122,-0.77719255390836217,-0.77190242827726241,-0.13496564446558723,0.35014879694183598,-0.55488893572264375,-0.23294604943144842,-0.76251706925807738,0.092459374002432676,-1.899805413886823,-0.64111639320509595,-1.2430103403156709,-0.061157131194559067,0.34164194669143239,-1.2081853139101619,-0.0033023107014389453,-0.83794755512091035,-1.0731536299421687,1.0758670803453654,-0.68215206241209436,1.1384510067349154,0.43025187952433708,-0.39371051016281328,-0.90512704784451625,1.0342469794501021,0.098274516198682216,0.67102634791740323,-1.3232113834421948,-0.44600213641911973,-0.30743756195311539,-0.2657356753732909,0.67414285645970007,0.67149721684604213,-0.39642252958228202,0.56785695748732545,-0.36274267256314224,0.14558149671587844,-1.0258823679854314,-0.37730238007400585,-0.26220585972858251,0.99580078480419065,0.67235174091043393,-0.35139727001763338,-1.6126964836878996,-1.5813279209843152,0.090542527500178757,-0.81676084162209295,0.50034513994184293,1.241815981496875,1.6323029120376455,-0.095906484859360069,-0.24630776010557209,-0.53676713165844503,0.19219021525724217,0.6189693896472438,1.3253758764220587,0.64686295151030826,0.62343377552774448,-0.11515993457733474,-0.37800091669445263,0.12277828443976435,-0.58167885233682581,0.61114627069596195,-1.3300463669784941,-0.39835360807481823,0.12878825840633151,-0.41023713178997423,-0.60187682206444193,0.83756061583751995,-1.0007320373177122,-0.71140899353039022,-1.3081405782313189,0.79626419288194672,0.74948192986519924,0.45512799148535987,-0.48085835843230229,0.4486108638507455,-1.2537170226415386,-0.58696235397058316,-0.81608288300274323,-0.29744286973103029,-1.5908452764237455,-0.30939344409989417,-0.77866725444461482,0.28597554213395115,0.33115513206338748,0.71133812257398632,1.0198680448331452,0.25704183415282578,-1.0811022444887823,-0.2308477433351607,-0.62070660549771739,-0.26907288946458296,-1.2786679772166334,-0.19869638331719622,1.7233356711796923,0.63072283469069923,0.16512935256908259,-0.59999246530015815,-0.17699780618018426,0.35049967894540723,-1.5940358629749325,-1.7417454663168868,-0.56911669766099493,-0.71080393395588137,0.82786512518994326,1.1267247395885933,-0.15352924299916609,-1.4960058431742551,0.69446421205198228,0.37073049855081275,-0.62469620581611263,0.74822999572539017,-0.44516251147625258,0.2990537573874954,0.11105268343775233,-0.62837567993097032,1.3441569681070455,0.74929252895040821,-0.12849474185568771,0.45953463511455989,1.6736588260562941,0.6150222517787548,-1.8784334862548631,-0.34633720084780184,2.2347414992129226,0.15854453408719241,1.5335440522585821,0.63064719594331264,-0.9140628365396759,-0.088257001251455039,1.4533938901474355,-0.70588648956350553,2.0675563324153394,-1.2065503022083219,-1.6514657111637909,-2.8965886814618926,-1.1508797310620771,-2.224272383510252,0.80761505931499777,-1.7515801916121576,-0.28649143113124964,-1.7025584874321047,1.4591082874876857,0.60491036851620439,-0.99717849965242789,1.6124816181194466,1.0809901580305263,-0.86997656766246245,-1.8249607033534008,-0.246108835371043,-1.5571359610530391,0.08129890204378469,-0.51608627234348459,-1.4196070110228272,-0.049229642230460273,-0.69046512667280702,-0.11098980788268971,0.60490428102288818,1.2633797008655452,-1.2847692309003504,0.31053091582804138,-0.44498887971699463,0.59537667055872456,0.030500503588818964,0.33945483761099016,0.32448853553678958,0.1542032839894652,0.38081486612809179,-0.86576855437957623,-0.42543225215157127,0.83557042424943495,0.88342143986441735,-1.3694893663572063,1.3466813007664822,-0.045040765587925934,1.3526082322114221,-0.32702168101084145,0.6076075982223178,-0.096718188860598089,-0.048206193771424294,-0.64240143255672422,-0.026156207424781298,0.99064449891930939,0.059881361246486818,1.7042836742985799,-0.79183886683708427,0.41775959197344315,0.43841120544439105,-1.6509754948376019,-0.74928378387249939,0.87592520886067626,-0.22474049399438742,1.3779884734761074,0.25110339593833908,0.57210617159343247,-0.91610424317666483,1.1495854849936531,-0.46181615294530354,-0.078096757482251408,-0.878427358275644,2.0785521967531388,-0.98025659734762227,0.2817902085489748,0.30358467563384711,-1.3479770133427509,0.25335599390692254,0.69439557709797206,-0.74291495021895226,-0.79923095895024809,0.41976877506531063,-0.85889802164781204,0.094365172421568222,-2.1018074114821994,-0.051294828927219746,0.28549378145309096,2.7654632130969348,0.42666930592543906,0.73366793662403629,-0.2105773757125792,-1.1002875001454662,-1.2596662345822491,0.6339343877172906,-0.69643000165019908,-0.49722608181146905,1.1121641102844233,-0.29676987352691742,-0.16076341128830474,0.16134319099203889,-0.20863275920020849,0.52691545352349978,0.96405784155793317,0.64758873645527171,-0.38527855891149604,0.33773668839808035,-1.4256516931450147,0.17682215413626251,0.32232514097451104,-1.674624064277261,0.80970429478115036,0.12026714887542277,-1.0564466856735666,-1.6413214545173931,0.32492257549422571,0.18073137437005324,0.4879343429182687,0.20482730162615606,1.5923185657947585,0.15044585610590167,-0.11757442520395925,-0.81055777201450774,-2.4994370472629042,0.5633809740099105,-1.0740358151811025,-1.8963854886666434,-0.18026368873584156,-0.35444205264665268,1.1310497559730561,0.76346292332308474,-1.5700799508781527,1.9058418535579196,-0.35367929784486246,-1.1344398214215499,0.82122839020847582,0.29476572220425595,0.038567495533278956,1.0090158268598577,-0.73944173228036592,0.28698040158666155,1.1424761003529664,-1.0017746654708555,0.45043758207667356,-1.2054489874609076,-0.022553810365313662,-1.0286173271581809,-0.66242522265778847,-0.068967269443914334,0.35139319692687149,-0.74226082555230244,0.42417674668240218,1.0158366044750995,1.1436887829739399,0.34259430667938529,-1.5491854560873533,0.6757337810048456,0.087259820840431476,-0.36604268011539504,-0.64048749366228852,1.0419775759176833,-0.29539679278125114,-0.80804158965294581,-1.1025958488536252,-0.811647563784477,-1.5024498599700991,-1.2318949098737513,-0.026605303999866908,-0.037022315434391793,-0.79768146809463758,0.74077015147403824,0.69485455441327604,-0.70294223165412795,0.17142694733546107,-0.94898889655138796,0.64508524483870677,-1.5771838619038574,1.0296222830782753,-1.3530538007943971,1.3750603424209202,0.63738830510722433,-1.2178978892633516,0.6207477465508493,-0.48365813534031199,-0.77210223696384306,-0.17236283479482448,0.093582890615117653,0.935487944427004,-0.20283695596514831,0.056545578469726118,-0.95790694774475038,-1.3646301733897099,-1.1680932189146096,-1.7537428850469894,-1.9577211652180675,-0.74465432591077363,-1.4444903744362649,0.28325095607558487,-1.2919946350525477,0.72509611123589679,0.18742751502794819,-0.60870087227195857,-1.0054345037289967,-0.99336001974416832,0.68985600262793645,-0.98824261766341714,-1.7127470907842162,-0.5475428237501001,0.68608312458311915,-0.9853374653883501,0.3818585691763598,-1.0522563846433162,0.80580398719535884,0.16630739940469216,-0.31851956861698699,-0.162936736547106,0.095492154949084335,-1.0507085193449501,0.33475463331538113,-2.1089599277910489,0.43398548869608883,-1.7550055712145594,-0.83459054093277341,-1.1194895844085744,2.1995617995801502,1.1385191935365719,-0.79374559807085165,-1.1860839869926902,-0.66214775433600281,0.8297889841593592,-0.42712545275840896,-0.41339482058352878,1.0204356884667458,0.20208112095329342,-1.4734555184129885,-0.9852108115008269,-0.4837989089744783,-0.57997211199561938,0.16484344142509288,0.060885394527998266,0.7438331620207731,-2.0796088070249206,2.3009531895878292,-0.87681607908456105,0.88178971804693906,-1.1943118357375158,0.3268284839224877,-0.88536213829819721,0.41863559098257386,0.24946852410434717,-1.4011143487766149,0.082524795353906583,-1.1282467170555237,-0.25388531259904557,0.70480308170796335,0.80216212543774312,-1.5587474910808743,1.5647168165610175,0.97838143796071519,0.38387335602498673,-1.2825249663571516,-0.11895614469763446,-1.4085441483338992,-1.1221082354912475,0.16784957659293759,-0.25301024722550014,0.86025255677225609,0.92284980538338157,-2.7459293705012571,1.9724343015448682,1.1114494421581393,-0.732941625498859,0.52710287409073731,0.81135973201189227,0.63122398356027587,-0.30192434537930568,-0.60512445462780295,1.1309875005169676,-1.2311480913324051,-0.5686646927996275,0.094742114872415031,0.24768511090502951,-2.1026432678238955,-0.029112700136123163,0.78985826086412614,-0.71948903885603321,-0.8087253163367788,0.33840059699301284,-0.60364382610445799,-1.1018613070666476,1.2666170784491573,1.3162889601449108,1.7554171283217677,0.54206232911125773,-1.2472104484829458,-0.20828615046985313,-0.80827282506335218,0.046086568885420065,0.92798942776949622,1.3375823328087744,-0.42210563080492619,1.0701927482039353,0.82728643695823134,-0.83561769204798608,0.73852138139188583,-1.1591093084001372,2.3011684906616621,1.2163303333767543,-0.62897519675038471,-1.6980537248019674,0.95987832315374888,0.84864506653008731,-0.39633027509782176,0.54308463051307976,-1.382544591262193,-0.12776846335326092,0.46098073704985071,-1.3366135854310641,-1.1624342292799743,-0.047906019166508433,-0.81384266780908276,-1.8453206417429657,0.36153261292310079,0.4367228521080988,0.079312353082337028,-0.16991251705078012,0.94476878228837546,-0.35641553588427316,-1.335031367998184,0.36305522560900144,-0.30562807527236818,-0.5228153801467591,1.2193121151423989,-0.84221021806162533,-0.43036755792029352,1.4878797338157714,-1.1642007285169964,-1.4547210145116518,0.54409751447615995,-0.17756871708896094,0.19467338721086141,1.0011084169661444,-0.2393575720023654,-0.42662615301577544,0.2201527385409989,-0.23948653654335419,1.3460861559744439,0.77894499210891854,-1.035006364648589,-0.53959088560811252,0.15628144303834685,-0.36473091711971373,0.13591311755101146,-0.53120125707756471,1.2997286140534974,-1.0500216587872422,0.63918922634545783,-0.85041558235834358,0.57551163059025345,-0.35600934321579286,0.31612819457895813,0.9284352839943758,1.8075448056351588,0.50476993250827373,0.046117494197385228,0.27262847279768937,-1.9060991073959033,-0.66243740976981857,1.0468033346406322,0.30900093526098671,-0.97801076746198268,-1.2486105392453888,-1.4127544528283207,-0.7759571348230786,0.31880529821975867,-0.54209735779636747,-1.31368427849837,0.17347697548215504,1.0039762728300679,0.94121509791655944,0.97704581576919469,-0.75947668907588395,-0.54428504840540903,-1.6630606416366238,-1.1831784563566186,0.55651751235139824,-1.5699092305960622,-1.8307406299917905,-3.0114313898287701,-0.043735629134511594,1.6511405429035921,-0.48486588164038535,0.34315259174685603,1.1702725324836767,-1.3347137948102277,0.61305126494898532,0.6133300687346529,0.21098337093814312,1.0739631272220329,1.1366095075061566,0.83884971125415875,-0.65318683015981471,2.8616342301683768,-0.031827682661066677,-0.29875801065499125,-0.21946735516207799,1.3668935879723956,-0.58463273449405262,1.0131105073188118,-0.23554476924245754,1.3288816719731076,-2.625742482027515,-0.16735387896873011,-0.24092508004583418,0.12256841607618231,1.1431878319733086,-1.8046913626490715,-0.64767418122118092,0.54913142224961864,-1.3265673054828218,-0.30250065944182847,1.5925205305210257,0.4522221699396603,0.43724442152824061,-1.0232773650219238,-0.7188335040855105,0.99585900737735966,-0.12622184360632355,1.0498294101059273,-0.30891759726777318,1.2877812907411785,2.5151261177332556,-0.84722051247588648,1.2420016366213804,-0.13676880883949805,0.7700006952673254,0.9948633002490308,0.34210222058979428,1.3997218416963491,0.40300012295940646,-1.0681881022482016,0.28094169230788557,-0.71628896385976759,2.1216954580583045,-0.30698114711998725,-0.50130312744326444,-0.41109078187432446,-0.037057436990786986,0.11177899124804241,-0.99313651018819937,1.5046639122579504,-1.8120750722437657,-0.68560189289367623,1.5001611706809652,0.41195009658429099,1.0743925511342887,-0.23734068531760916,-0.92873538637229225,0.31071086445888263,-0.6659429571887775,-1.4125722675727728,1.8219921687239469,-0.032444480703122294,-1.9228482462479581,0.33721811371172428,-0.22479654611371094,0.57036977281057921,0.61740904054411661,0.05674430102520639,0.47621535486587768,0.32594446004040661,0.45384950879524727,2.3293545899436743,0.41834640388608219,0.48440242564116304,1.1803029989712361,0.33087404582637969,0.52300666130772877,0.72678654354005134,2.5098829955344857,-1.4744728491842061,-0.465722561868817,0.80926344407816009,-1.1381807536627913,0.24619184242149414,0.9047648192377703,-1.6762769714175176,-0.65525130873778681,-1.1640218243116085,0.10068946297356397,-1.3936587081676783,-0.48200963159124471,1.3382237212903656,-0.2392961245168046,-0.93510399932775701,-0.88828681046917979,-0.98450050822145163,0.88227492035333011,-3.3114535867401931,0.76015320480272586,-1.1720653280528806,1.165151504514172,-1.4491789077542838,1.1804627086587316,1.6124844307901598,-0.77770601760009617,-0.87648745254911176,-1.2876427506405694,-0.91433134267714089,1.8331703283662113,0.72216274793817714,-1.0205317714640945,-0.84421462274309134,-1.1007612892524319,0.79261339586962898,-2.1079540509422494,-0.42460502858190913,-0.68084914941023089,-0.97731897963309478,-1.5996772826081931,0.81184576878371839,2.0923429240516827,-0.90943207477147203,1.4014941927106572,-0.16125148145155277,1.5876829604857781,0.6375347261801646,0.96521694924447377,1.1156450962893913,0.88304457003621273,-0.11643659155332337,-2.3354328074005481,0.066096159719378086,0.31972384727238745,0.64394895016880471,0.30232419864974047,0.92031318282148744,0.87627465452859266,0.76171525578542099,-0.52514675926213206,0.26668881679513023,0.15274089122435552,-1.6165263275535824,-0.99852282288904859,0.57669206865833189,-0.18758251070239285,-1.7939951718370082,-1.4699985181506887,1.3776253522872437,-0.61662047663922959,1.1729106116023558,-2.3368809084009543,-0.011901057517189078,0.40088764549369438,1.7474950065022163,-1.2232383494682122,0.47272549438697276,-0.24710726157589125,0.091615217649700723,0.99561244781151015,-0.29234317804017251,0.41696317123877408,-1.3469633015757023,-0.69458359403951053,-0.65851999504181402,-1.313603966043049,1.3528162211987607,-0.61437999361073969,-0.5606017413830422,-1.1640546321133365,-0.11939986036035809,0.24566868053936922,1.05087701707571,-0.23974513222859195,-0.14938614432813274,0.24364554749276551,-0.11172021522790704,-0.80989978765034865,-1.4450705667788495,-2.0054082682997918,0.35483794472470936,1.0330814298162498,0.061091667491449911,-0.14373618196093077,0.86575765552275086,-1.4194902266583724,0.24420973733554649,-1.010176213335229,0.22655127232464273,1.5271644298093463,0.27143680580447271,1.3019961259996828,0.45833654859451445,0.038206335902687807,0.73387253223454885,-0.62338692803327611,0.25062000343462593,1.072579563051046,0.10821197611737526,-1.1755448373590367,-0.24609386292796148,1.0091107639053938,0.04665996333816877,-0.28017505157987044,-0.84237657968992719,0.76148660516280064,0.61728334429659604,-0.76293819053532053,0.088689758194359467,-0.36899826078053038,0.045888697724205237,-1.5367174587118007,1.473825402515085,-2.6940577685694684,0.5119009114653652,-1.4647583750349873,-0.016245530806805387,0.34261838342485962,-0.36042968621265148,-0.60401554581569239,0.60100016331146422,-0.56603521039300675,-0.88146192379155497,0.58519895999926197,0.36480176273356474,0.048500726300802481,-0.50569260099339308,-0.21200178701610303,-0.66712814573994417,-0.32047853319549691,-0.21108576147686595,-1.4503968073744213,1.1245013080112798,-0.045627961059619582,2.1029639439029468,1.0511694681450554,-0.39992447881069781,0.8830695445570792,0.64585762518621037,1.1346629589109722,-0.33873754176585968,-0.8878629597501464,-0.88545413445625398,-1.0159362299846237,-0.28433027231690144,0.89277134530960467,-0.17037723133254512,0.59106801498544537,0.53113000071168226,1.2440961090621891,-0.74129678870351035,-1.4679742029344387,0.46992829136602338,1.2864915238008781,-0.47252693714422123,1.1961886529009422,2.0782384024574463,-1.2840486163124243,-0.8845248165042412,0.59543186942812243,-0.17913515647778272,0.12667195482634014,-1.0862870808438598,-1.8759305982342951,-1.0989989210412858,-1.2419215527948428,0.00037063440146727333,-1.2734358263314811,0.41589146481889361,-0.31041302709903795,-0.17566800708543201,1.4764482147621518,0.61330396948037402,0.5989215656475968,-2.1944047475177935,-0.22175568783251035,-1.5911639384521878,0.4640322473465287,0.053787608434914945,0.84840810219421336,-0.037195350858870768,0.8653123805780254,2.4162806237331131,0.4581244529920237,1.1983656353023842,-0.20665842773752802,-0.59154706793621936,-0.0892424388971646,0.61321713165567659,-0.49077947239913161,-1.8659716856504196,-0.31442120533138718,0.34279835280158572,-0.23505363983249583,-2.3099790385140726,0.5712185595251138,-0.11504454569654488,0.15848496851217733,-0.21626464319975963,-0.75775446801700719,0.026247830940762804,1.1930849457224888,-0.32022995030087514,0.65804192601695177,0.52528001859986229,0.41149733157118085,-0.10280908174454235,-0.23256364722855569,-1.4059072425249575,-1.4887869811296075,-0.49700822296047648,0.67580503437399997,-1.2352344702427016,-1.3084765636086022,2.0849016405488991,0.83224036914114163,-0.19841441953061673,-0.49664279304877146,0.89246230611347954,0.036242055407225235,0.14750844743321634,0.39817684619253257,0.012916845622088306,0.12533361807705318,0.57182208196352791,-0.18072974339967268,0.26542797553230163,-0.22896765794832119,-0.40465816057160181,1.1863059928914215,0.57986933430438825,0.50342568706754454,-1.6536614739208382,-1.0198239179749793,2.214200905962366,-0.1520561223426411,-1.7212263018527501,-0.30008817629996387,0.11170803097773216,-0.77797641083116276,1.2017325557671996,-0.21075127314065789,-1.8406572354909283,-0.97045318867365216,-2.5692688255868856,0.1194488176888438,-0.87879594267970784,-0.6306860639423314,0.50535980475419073,0.6391528471168737,-0.38020358728800902,-1.4560692857750013,0.88202703057960075,-0.89646832126855547,-0.46733160116637229,0.34346097237658385,-0.061493971577930212,1.091619876124601,-0.23535695465863968,-2.2779453470093611,-0.59766378356196093,0.18506374396316835,0.15869279489847926,2.2894874465176325,1.9279393592902021,-1.8494945220078929,0.62458937615641408,-0.10679099335760101,0.43096560051453858,-0.063563375149352855,-0.75971547653131044,-0.26382973352311045,0.5856632056557256,-0.94815028798994605,0.38807691871498967,0.96895068184011468,-2.2000824888171393,-0.86016755747626727,-0.51389433845073751,-0.88928722075895639,-0.96129876440043005,-0.72262769333995458,0.90619934481697606,0.85626721357125402,0.72387760198671858,0.30244374262509471,0.29208224399702887,0.3655383812333261,-1.4650669023440608,0.69051924774333162,1.1308044951632006,0.80875279619940643,0.53103751119899201,0.15720108659103976,-0.23708351569306374,0.44050739293660873,1.3613728796220381,1.5987651190297496,0.36107007387899065,-0.85276517486650194,0.3555876020064539,1.8682038637585678,1.1287950790373291,-1.0533451385148547,0.59775715950599839,0.55518479865383974,-1.0017519768284897,-0.3999161032262542,-0.94822892945452919,-1.1152557873795326,-1.1624657634128666,-0.46140783832106147,-1.3901983486728595,0.24241422076718711,0.32960718034649356,2.052042672714204,-0.62684604787707843,-0.68116303397450206,-0.19183642375028262,0.29374183602419424,-1.0365435241124645,0.10048962760266504,-0.98092793841832382,0.16861763344000144,-0.78595717302584778,-2.2680429264634818,-1.1588863212452347,2.0429552634066446,1.9416169545277961,-0.74092896213838444,1.2962385098598173,0.28391845155954593,2.0670630157056533,0.71823497450654505,-0.14269814560843541,-1.2801671442077724,-0.80908500434251363,0.13636745292693297,-0.55349204511057959,0.5364604423922007,-2.2960036357903149,0.049206074933507322,0.13775317594208883,0.087622910819337305,-0.12248700203304101,-1.2805310570626474,-0.42924698737558187,0.049397190226371346,0.75691292104653263,-0.051360776348446907,-1.4702205988297301,-0.78582561102398818,0.41469862774801181,-0.12728854695380223,-1.189160965086439,1.5347239945424278,1.3184611638470189,-0.22739309222677548,-0.38790215097131253,0.018211614597101966,0.80377211501272028,-0.09491881135536144,1.262522236998709,-1.5746674374316048,0.13762766921017694,0.64430742127568308,-3.0421679331839164,0.69272996711799162,0.67572887704445117,0.45940864624078598,1.0301287745441194,1.0803113854383719,-0.74314898992491873,0.76661008254860363,0.4700585074195775,-0.34217940755403753,0.13547389503208859,0.054208550021990917,-0.51280994851096362,1.2959155378937364,0.42968481501880629,1.4794218173805807,-0.54235811137189394,0.021019194608214786,-2.6443690610036517,0.83576737253232969,-0.28679613753634431,-0.62987163078292419,1.8271718639211922,1.585023117034722,0.61441103495392191,0.094544411711864965,0.86082100448425136,-0.47412664111747038,-1.4628699718605163,-2.297744468417807,0.056395952278978652,2.0774144425706527,-1.6934476856503298,-0.026959314562692422,0.25370180751922838,0.97791176640226085,-1.1798047715538116,-0.72473064042428026,-1.9398206677828076,-1.4355944036960133,0.48574801774671872,1.7633967539765567,1.4867452877632674,0.019961392301909135,-0.32542072961248975,0.225086407930149,0.18505143664168824,-0.79288929355567561,-0.802698958995686,-1.0892916877658849,-2.1037771336559983,0.26099610406785895,0.39490143709365305,0.54126982102419652,-0.77032347983407301,1.7909198073039574,-1.182294218209593,-0.39444582334544931,-0.17226971071369113,-0.8140364824224493,-0.82473139454319788,1.6006021838949278,-0.033419441168493082,-1.3651842410512387,1.1679231150923566,1.5371374651472434,0.0054683516962889013,-1.292522513533537,0.35670100485543016,0.83303197384983618,-0.47519241226533349,-0.45769693467827932,0.68287564397940737,-0.40950638586519428,1.4803181367086453,-0.9734500830697026,-0.0003079571086450234,-0.24086184988450551,0.7860624726003923,0.57224282285695471,1.2738722808109302,-1.7359732792645066,2.274524956444127,-1.9292493215896849,0.30388476660679398,-0.54807056090980522,1.4808641334084176,0.075783946656979698,0.38270569221934692,0.64417429430417239,0.75359577409670719,-0.010122027107915587,-0.37425678151727593,1.9201368393509508,-0.89754154267109909,0.0030365837177567562,-1.7204199751678089,0.010533827791102648,0.20430699323282134,-0.54469492206214554,-1.5127464073472929,-1.0135789123167078,0.83508287394837888,0.32845958858363006,1.4908609116163665,0.29293060806234805,0.21084799940362015,2.445508577628039,0.47934573465654889,-0.68501277085480961,0.53624061229168962,1.4359117561179839,0.35040535421137525,0.26371449902099986,-0.46631046617795446,-0.55227746040885528,2.2485336665990032,0.47726185239127483,0.30379507811708367,0.11602215710512585,0.50042322059490019,1.2150631095669204,2.2089788174367548,0.25247836183576455,-0.34332979694515864,0.38267343603999088,0.74555839954465808,-0.6267856581922272,-0.77674818203017892,-0.70941381687461835,-0.69330261606016197,0.13167212099256975,-0.25514026553651992,0.19121474530794211,-0.85151260332658829,1.1796930978137254,0.4253634216647767,-0.3737592853819518,1.0706687301431457,1.1882572982265394,0.44375286122794277,-0.32241766143314937,-0.10580563297827818,-0.37515777592600491,-0.81750806917514496,-0.4143307484764549,-0.34875811920559852,-1.9147432239198365,1.6933713447020464,-1.8311830498110888,0.42903839725327086,1.7745483956991601,0.39795727115576135,0.14325738335656341,1.6370717458620263,1.933821137522389,-0.37675517398126579,0.39147899916513285,0.083009605072451684,-0.58526075751427376,-2.6305355089417977,0.067455289516234751,-0.43243940949600873,0.15706551487449591,-0.22129955007803997,-0.079761258445889813,-0.093169821806560235,-2.4140453674024078,-2.1725318441699333,0.65489913435097602,-0.037422518348739893,-1.1791375821393433,1.0444876210703502,-0.3163472310471106,-0.47180557757091413,0.73960971062585967,-1.2282092510959361,1.0211913157474748,-0.25497524859751636,-0.57119430442325003,0.33031932862619551,-1.3161451197275078,0.8437005233082161,-0.22715945541808774,0.3682084333582723,0.93858462588154434,0.44563528639957051,-0.14583071752702814,0.89825695620011159,0.75543308369229967,0.66882816949473778,0.4015127955703981,0.035732797552917368,0.019808306613874612,0.41664039187722351,-0.87953465129926578,0.17407774555119632,0.092805757525661128,0.88078474244362392,-1.1449907188431094,1.1953968635558447,1.2954492882098068,1.2380349760618667,2.6892794838764624,0.48917594258048552,0.63248951957775268,0.014995813505424671,0.070970359572381833,0.39470508172885282,-1.0236178289440219,1.9334346255031085,0.035094183678460338,0.17570546572428944,-0.84164886026612229,-0.17012080608967131,2.0082386279572457,0.12745064626913369,-0.51743987921450152,0.41931845013322966,0.19596013136034274,-0.77827969229603278,-1.1886880781428728,0.16995981427276877,-1.3477436259000037,0.28346630823442953,0.46018885011223104,1.3493347301675631,-1.3335346115901097,-2.8981321024998916,0.091917810838999858,-0.65314494540259238,-1.3002583429306183,0.35491353300238609,-1.086680500251394,-1.5789742036769343,0.38021315300358727,-0.3378028296772842,1.5709466880378804,-0.32449690517533269,0.89965186444339806,-1.3836019468196228,-2.6324109998620528,-1.258858158664484,-0.55390567214515407,0.16781320509336206,-0.75965235864228564,-1.0079913917407048,1.1335695219574482,1.2669747282378512,-0.43149397757851443,0.27300214062630934,0.29123105707821617,-0.23543656396529261,0.6603632612284448,0.73387656189014694,0.42516896340088089,-1.8351476767619344,0.3870691265848103,-0.45868383748067432,1.3010124943286789,-0.10368911500954717,0.94402811301385181,-1.352695283203099,0.79034366422524094,-0.60497391024242519,-0.50521666723465541,0.057990805971088251,-0.31292595656664191,0.45260783706818258,-0.050663086549282664,0.54351682632418818,1.9220365180105392,-0.38714300789070649,0.19198863210857001,0.52598719000049043,1.0484467571483653,1.5922723418900437,0.33403213473398197,-0.090779872713824886,0.11205714831076882,0.47534913449864419,-2.1177377678897327,1.9312985134968743,1.5599836329803936,0.25646054629767151,0.41532731349341401,0.42133234037086703,0.18710101429431442,0.35997525057712781,-0.067853636606362427,-0.084871071502508041,-0.056319572764820046,0.086519881463723788,-0.48949543016415381,1.0334902222632538,0.95804318414578371,2.2034184537619446,1.4376564815917452,-2.2105284421313685,2.0064483646235036,-0.56613302827417855,-0.22842717235359747,0.87199290753677039,0.097216544368411401,-0.42155119726828905,-1.0100197659820962,-0.30462614221670148,1.7614612807509535,0.87551884629587107,-0.097554673422057522,-1.0498016229282705,-0.2884236779518079,-0.67884278945272436,-0.45714354021630393,-1.5755347349564743,0.48034372639824707,2.2474201287343458,-1.1963684956626959,-0.020513654887129043,-1.2464950362433553,-0.7438809164934902,0.69731003949426817,-0.59592870694309275,0.88194321725430758,1.0740370361654594,1.5700334353494556,-1.9639773649877363,1.7815814090306874,-1.0931036723195362,0.90314545191840878,-0.64580870978274718,0.084486316762435662,-0.40758626931124414,-1.8214598545772793,-0.26258508262302882,-0.8592865487419542,-1.0790706130297292,0.32251353417077083,-1.774972336094599,0.053806713433266984,1.1653589695082431,-0.72255017820747569,-0.54932745676113437,0.65910967415524202,-1.0655050142499536,-0.28359777124886415,0.41703378650454515,-1.213461346034004,0.14890459812893275,-1.6197714828679795,-2.0913372473587666,-0.18194484595138666,0.045036391047794395,-0.58099543493256733,0.37097181106579474,1.8398966895267879,-0.91788161221726539,-1.3794474770299796,-1.248801547128761,-0.55097190530200058,0.76497379060582316,0.047483824287505624,1.2817294315021897,0.071818862056165209,0.8358536842020452,-0.63432906416398127,-0.24192071487142897,-0.42980492377475571,0.080245146526428029,1.3230535256523048,-2.0984062114877369,-0.68151742873381638,-1.413531584239109,0.22782456061037518,-1.3043697970560066,1.6423114595811976,0.51063999542222649,-0.1662537123787442,0.72716427712900478,-1.5644650262570143,0.28348549277696611,-0.15537799966591537,0.071485193706939634,-1.9695837229200834,1.5432543182380136,-0.60704316597227503,-1.3761232924776348,-0.010439384101134836,0.48189044124598929,-0.52209937664497763,0.17773433470944394,0.23526098795931277,0.29744419833730079,0.93973552518152892,1.1436605346288853,0.28329539537140574,0.72008263359013802,0.62179395407741311,-1.0369964145266826,-0.15482017615237412,-1.6098905588823833,0.59060401296763476,0.59706659419753516,2.38562214138677,-0.46575666946387362,-0.35680569396547912,-0.61407890586759295,2.1153869968903853,-0.73564735066474585,1.0200240775966276,-0.36363238573097328,-1.9291221884357841,1.5099796480137859,-0.010885407150539698,0.11962992422769694,-1.0431906342531678,0.89073939368361343,-0.80068994763283308,0.091706155137544862,1.3599293915995114,-1.0134785458532953,-0.58779036968975418,0.40932630662627983,0.28655918045250545,1.8103161664210254,0.84134861288781082,-0.99292633867409907,-1.1170617407993635,0.76246938295339606,-0.17091208824584717,1.1952794620503944,0.17752218088726082,-0.067288988879387182,0.0060678070173016945,-1.0917650942415538,1.1620284634820996,-0.15919012886760925,2.953825898883093,1.7417411058890415,-0.89166293271853558,-0.66355867200119956,-0.73763301210878796,0.88700060766795097,-0.96252723537416163,-0.0035211315994910452,-0.39738798123918956,-0.039635556561876159,-1.0446984402126906,1.7579580796091447,-1.3814309722621978,-2.8214235528786804,-0.69693510212405652,1.1716283788098414,-0.87857264723838846,2.3243695217739875,1.088359034371434,0.90895560833027567,-1.039905084983636,0.77085577874202083,0.7588313699553193,2.1190883324009469,-0.16744740688083032,-0.058236597552234204,0.011487200524296677,0.3427120172896258,-2.491393026515587,-1.3134058517357785,-0.67523409204908369,-0.19954063835866412,0.11735232740589259,2.0462016009710542,-1.454588145584605,-0.047141810645462093,-0.71284101901494512,-1.1208371131175261,0.28988746773845997,0.0076884325834693044,-1.0304993822287265,-1.5217257642269073,0.87232888219832161,-0.29549865238598461,-1.1181975327862372,0.034970924822787096,-0.71294928367464683,1.6193530314322002,0.69089917692083236,1.0208689168732397,0.81773021373360932,-0.83501256530473578,0.2142979781090168,-1.9521803756963869,-0.74786580282414383,-1.5129804675506238,0.19227557490026939,-0.38180631813070687,-0.84429606209419583,1.2325093249765768,-0.35728509470574449,0.58906924195026111,-1.5891297968516758,-0.041787057621479183,-0.058428768292250147,0.47107750084735073,-0.88685558454067626,-0.61084146853404131,0.51679883124270398,2.5211902907871258
