-0.9895256723632827,-1.0227129368204273,-0.056722424252340364,0.33030799847559877,0.60441552470217241,-2.4987035724417641,0.049485330549456336,1.7316839031407789,0.11572654763478704,1.173716922572805,1.7784825251773231,-0.94082415964166688,3.0186185100695258,1.4359139767567877,0.64831963414451044,0.34223288748942998,0.27320638898729066,-0.59382246524756943,0.79172571071700804,-0.29469843847191585,-0.33565708790435794,-0.4844992444804514,1.4089127373660666,-0.10174635127733606,-0.55454060469284172,1.4297978377228497,-1.82651510723148,0.45617183983552184,-1.0828363351389894,1.1515852370587782,-0.33396236842577171,-0.65654107834817332,-0.076862516976073325,-1.2148754914419104,1.2561020074740448,1.103319280848065,0.3154836545224583,1.2280025984348104,1.6564866675396339,1.1355825419246441,1.1975891999657788,1.9936757091814783,1.0874620554319239,-1.5747119226372119,-0.2745496617319465,0.81400265080032341,2.1719921088312466,0.51358495380561087,1.5124402881291883,-0.38766946719643691,1.2126497073584279,-0.95804832740661494,0.32247413986898538,-0.70409105112472936,-0.45428684895839427,0.16068093771478456,1.1569366592240995,0.70526496343197942,-1.0759251532257912,1.4804535154951066,0.52239066262812017,1.2759462239712152,-0.78935146966398495,0.26094294146995689,-0.89919976207615626,-0.42472524253224075,-0.8831201260356013,0.55998458562730347,0.94105026910034328,1.1013321538511347,-1.9068350400406018,0.67287928061632574,-0.47531913792382652,-0.17436759856788245,0.91681380621821162,-1.3418511223456668,-2.1358923265829888,0.030091720318954632,1.0579486373075031,-2.2806470459141752,1.151405891198952,1.5557191963700867,-2.755592884353689,-0.74022972163068335,0.34698905554665838,-0.98867065618828009,0.99690829739481479,0.94685755567614449,-0.8058115883723731,-0.51822469116357162,1.6387445416355479,-0.70086737960263801,-0.81882584301699024,-1.5485732729986044,0.14458019293706609,0.41115062870666985,0.54939028997436024,-0.96023081468862781,1.4538409470099996,-0.64055541727324217,1.4236282172626091,-1.8498090460722447,-0.61130561928035887,0.70818050035057667,0.73234314003874201,-0.31255664098514852,-0.12694686293913179,-0.37875891115091098,0.21203132309631675,1.3581160556926448,-0.008461462029142287,-1.1852944544778461,0.47479185369933075,-0.42587391222893761,-0.88963305950845573,0.85633559326471131,0.44164107104339406,0.78685639414872832,0.19358643611825543,-0.92054216844236081,-0.357279464140981,-0.17560130795893111,0.15909680976265528,0.77344554404136601,2.3588015813698089,-0.71009021120622862,0.17704519457973678,0.65851909352177151,-0.045467133401256868,0.99057854941551082,-0.96361687108998983,-1.3056832538157892,-0.20145486682095667,0.40127587180228635,0.91581011820698122,-1.110553927040977,0.49832973485947635,2.4893980544060934,-2.0249969732583533,-1.5791315354972675,-0.59225045210954541,1.1531923708776817,1.1790799000215662,0.94161259325382174,-0.4888609609059425,0.91413235321870112,0.058389677970737901,0.31232926354913809,1.3667222994579888,-1.3381632879616667,-0.84930920375009888,0.57411591680251395,0.02491191739837641,-0.61996740143412021,-1.0458013229706355,-0.23980349219148614,0.8486227705190672,1.2707126598497265,0.23635741662051268,-0.40901856243249701,0.097413053590007681,-0.40438772801003248,-0.46146091194344341,0.98631124862694031,-0.51985906834542217,1.6533135828503847,1.6855390766742218,-0.61599368381487252,2.0907369635921951,0.57561939739884249,0.69265223347888949,1.3252864533938122,0.049984843302144685,-1.6835982399846023,0.36324513829737187,-0.26696793079657921,1.4876738639338463,0.10603238911549254,-0.98625742092948221,-0.0010462219240182432,-0.17422455704362175,-0.37798702374184984,0.25773318293287806,-0.72899772770102289,-0.38530351445890726,0.81941220798193481,-0.50240523142226401,-0.83326472412772445,-1.461028758932569,-0.0081375411627056353,-0.1499839829202263,0.29173304833502245,-0.22154225475203876,-0.38833906329482598,2.1409743799057499,0.39338933219729122,0.29340839138736041,1.295318303501229,-0.12807998270904911,-1.3911751204821523,-0.87504952691524573,0.78755325448975866,1.108026500259401,0.13492643409268579,0.57680473062437521,-0.012104179256864,-0.82815596057591956,-0.49697071993849767,0.4423509717087587,-0.52544661906565648,0.87487689015663783,0.18457807819524591,-1.0360111533990826,-1.3430209040419399,0.14791602428917741,1.9166959284626823,1.4369764581452567,-1.1398887096774053,0.16611897574654444,-0.35937970990916529,1.2968969935744366,-0.31398806070812252,-0.32876099225682875,-0.34957549409521566,1.4822326575598459,0.93549968078845014,-0.49505560085789174,-0.70887399870034651,1.744406101848462,-2.6296460343844528,0.037832338010648066,-0.79490432500058195,0.63009495742775667,0.29034970471929034,-0.24226859450428037,0.35576490800213378,-0.75495323842166628,2.2808945078204172,-0.24812327545048155,1.4337043733084385,-1.0570274626241261,-0.74857442019080445,-0.2581511057102478,-0.57334037520437087,-1.9828649619910377,-0.11428910766717444,1.0577517264891523,0.85781664432917504,1.2521933947951454,-0.4724975992542757,-0.14799598044775777,0.81064381361097981,0.82585658075449841,0.072697948978908661,0.65620257725544118,-0.7204435744566039,1.0052449981256972,1.024344514391933,0.48250700221099513,-0.81235983953649471,0.093923894054131388,0.38230045733555362,0.56314863836055151,-0.034652202508174294,-1.3932449243000147,-0.045276755243251483,-0.23143542583022642,1.8314215680661337,0.8516775611266707,-0.76708328675624782,-0.36635112917512469,0.59550043309441136,0.37750792327629168,-1.4361127012797199,0.093192707696669472,1.9330639650171459,0.0010198309704845523,0.26217402802770423,-0.28344143670466648,-0.19362325891596233,1.5476234580908854,0.53827713613267814,-1.1292402458495667,-0.3556220987176581,0.24263553113072411,-1.1080003404745631,-0.11046889002466453,1.7566160045627244,-0.62462765037642765,-0.089234027034121727,0.060927763143822575,-0.74020246116180954,-1.3616687296251018,0.15875121814160156,-0.1130551766237369,0.4213909599352888,-0.022443612506263595,-0.26607700900931169,-0.13555081336838795,-0.37773536235117217,-0.40873349284710359,0.23580069221181954,-0.2291583081289548,0.70759701709747491,-0.56658817811694573,2.4733752782504608,0.36601265619666384,0.5677303810802008,0.093624693006356133,-0.5279643505225613,-0.50665360543532301,1.5007378774844875,0.1072630011113198,-0.037549025450742013,-0.78686085358606439,1.0723432370849233,-0.89431122704155974,0.84097206309190042,-0.69007233833623527,-0.1309906448883513,-1.2385253207473823,-0.42027637073741492,-0.44942138772783508,0.60717943197668189,-0.15167975785060045,0.19384224811769482,0.98968065220959878,1.0064624889965721,-1.0153347297117619,1.3577441611816794,0.39886243993034587,-0.50280218627516438,-0.31816079489871635,0.17613544098592895,-0.5030060904124467,-1.3657138597034142,-0.3213809904862438,-0.63680079661894839,0.58388093896799143,-0.30119046549161482,-0.1240627672036259,1.3186714460031559,-0.22374232724658158,1.1915483527615163,-0.70954569655958111,0.11220663315596928,1.7932834665377004,1.0867957383460614,-0.51225212677763288,-1.5742413690765766,-1.4867991274506349,0.71659169476372964,-1.0522269779451003,-1.5821395694427574,1.149563087833616,-1.2774309685475091,0.63287262956894308,-1.5844560655617812,0.6604992320255787,-0.42841344217586802,-0.32124889023342995,0.50840408811105364,-0.77991893889785868,1.2052155209297561,0.45002350986022033,-0.966206929926678,1.1681436300182642,0.33015051988611516,0.69074541043761173,1.3772979803748455,-0.32369672094124807,-0.58124918746729015,-1.9619140831012964,0.13732842757389829,-0.99297015334132288,-0.518491946121175,-0.317797241206909,0.71653655870068123,0.57427608759252313,0.18844011334789179,-2.7275394226444898,-0.4465296525080571,-1.7017534098471008,0.0068121278101340938,1.1571891458778809,-1.1506488921905478,-0.22801516227813626,0.84840374747342207,1.4002253977675481,-0.013031700229679677,0.25798687232591577,0.47867616902854043,0.1473189532238208,-1.8349745654695853,-0.5165866486154681,0.21194523302154095,-0.11033056028872605,-0.89564984343597853,0.55927336729263455,0.54527475280905191,1.0529195618217324,-0.55362906089101527,-0.9423204511947153,-0.72961409381013576,0.9876554060081042,0.28066583819759588,-0.31995751791744942,-0.21370086724957635,-0.80344867905492523,-0.4379823253632264,0.093919788837788065,1.63711841085008,-0.57968824210466741,-0.53908792301370734,1.6090578707913843,-0.38079895667143721,-0.024827135506824107,-0.94360179430332858,-1.2528236572253828,0.21683699182426891,-2.211716097450017,-0.060827416763333815,-0.58273001871637886,0.85809817172156344,0.24814650363621374,1.1064997606730531,-1.0900021757328162,0.18128486046810932,-1.0615813696121095,0.809470262560262,2.3975137982864907,-0.88485358909863554,0.7554952509492574,-0.34812658363586424,0.036295832692196731,-0.70160045112580893,-0.89982327509470683,0.95611006925683584,1.1520462706686065,-0.1497759222175796,-0.2638085292183745,0.50131805393681894,0.60097596543774656,1.1284436416539401,-1.4349009834171123,-0.1382075556473045,-0.26201541929317979,1.9211618323995261,-0.32697644755815952,1.6363480411624931,-0.41558980087614028,-1.4410183561024756,-0.12316635528077752,0.26736832976431196,-0.22879997874146954,-0.38371001404402838,-1.4727632025909514,2.0546429664927111,-0.8292876840932355,1.7536139762070215,-1.3401936597576931,-2.3637841621538938,-1.3395504348699716,0.92309206611936967,-1.0158140197577388,0.9797736613358945,-0.12730312337720348,0.33541625207293962,-0.40305159788777239,1.542851655983591,-0.68975888221218451,0.93086902681731576,-0.75340141324730436,-1.8638316667061785,1.1030943643696576,-2.0005804101654983,-1.5746989625619776,0.91365354416977829,1.4082676971977888,0.27267412007301051,0.97074195114861661,-0.58718622567336654,-1.1311805965430266,0.86636826910559017,1.8197108460850104,-1.9911638649223795,-0.30964361399651935,-1.6990871685483657,0.53042841545899,-1.5154254696049143,-0.59738893746406341,-0.6064697912257514,-0.45925179635103697,-0.1024997494617443,-0.59022687618872305,-0.30681537094291972,-1.0349563202097425,0.12722982011269596,-0.23161368802164883,0.64029745370194591
-2.0728227382657067,1.391279744312202,-0.012352493965633178,1.078798463544193,-0.40024014158855381,1.2341057730823439,-0.52453818887792747,-0.36338324665488847,1.0570072541500644,1.137311982664077,-1.7387524870791469,-1.0056073683958469,-0.50376904090773122,0.18908890573579828,0.81591234354613962,0.15036792801988053,0.32652145588882014,0.92750054668589887,-0.91553253015939251,-0.38568343244180553,0.96385067518148337,1.6310329121440612,0.43268554683055244,0.64122001988626398,-1.1724531767327575,-0.27266495234426086,-1.2049575857558519,0.18090652482523525,0.74100385930034474,2.136717635264938,0.74430108713784715,0.48238963075478758,-0.1347971703142696,-0.47220152763619755,-1.0631544540088131,0.29763433990231236,-0.21693249224628922,1.3962475951526923,-1.0890576393243476,1.0790373405976057,-1.2942781861714359,1.7331277936556173,0.022382538164576256,-0.2484209659214496,0.091181579671894317,2.0709164814558298,0.41230612258977556,1.6364791035251407,1.1807896622111571,-0.15032066707852504,1.0944434904707392,1.2577627392809383,1.3910582170594645,1.4655591599116624,-0.69815200239379194,0.24673196721411059,-1.3539024924082976,-1.447816084343464,-0.34436995815539523,1.8017353553727324,1.0443447356951292,0.11920635485921738,0.73862942454769209,1.0175437865680497,1.1774847629697984,0.78341578559095082,1.4709347741041268,-0.32270331120589957,1.2211776802199084,-2.9536056307813809,2.7311141088420405,-1.0297377917795159,-1.5680054627333166,1.1182852746123257,-1.2601896682884823,0.19665185130513968,1.6593410122523702,0.8520517753176936,0.80801919749578666,-0.48614640257920771,1.1302659260268797,-0.41488803600930541,-1.4639834285870221,1.2716541488829549,-0.60989404305943051,-0.39355580854203909,-0.04619620119876159,2.1472195155291405,1.3211441510865791,0.88065809514387605,-0.47260034210066387,1.5722798273706089,0.13416710388003275,-1.2062667790838333,1.35422764091508,2.0688876171699833,-1.3943817870853017,-0.67012324326840877,0.84662772464287006,-0.33938598669995179,-1.6224302058548841,-0.40063702545198832,-0.13629473291936087,1.932842699862896,-0.31938341799026038,-0.7286793347613798,-1.5405792999630226,1.4041951595441171,0.22854300366398175,0.25575840335477218,0.15699496914823843,3.2584191029120615,1.2546087432911079,0.24727732904763711,0.19531772099480729,-1.2281328698853151,1.0370250296231864,2.5007707788338482,0.57892316653145159,-0.3404472509731491,-0.70021900692045591,-0.054297227544280312,0.29494389162515522,0.42600311193260254,1.3716540274293867,-1.211009728827773,-0.85916762450356876,-1.1468038871535764,-0.20119405699662699,0.57202275897281774,0.89754171434063368,-0.98676195396353095,0.59710881769960034,0.66982592689445108,1.8504944350047474,-0.23083533722053001,0.7858139164879141,-1.549362617987615,0.10210620453727616,-0.49655434490256023,-0.31957926742986748,2.1070008962923761,0.21485349940814563,0.25470911631140197,-0.21376195937308445,0.83205539607664869,0.12477205937837159,1.8966473011154457,-0.65702515005067252,-0.49935067779891729,-0.4165633962010421,2.1815686260724383,-0.20734730409212668,-0.31570415314097749,1.0040419027853682,-0.84218743943017849,-1.131329381708323,-0.5008681492150332,1.990875792079865,-1.2152045841271537,0.65582603542293028,-1.5997938253995312,-0.13452418241803393,-0.47596086977799584,1.833572417183994,-1.4620176340577846,-1.171256464265761,1.0058858234210264,0.34380344034353982,0.97341655106419533,-1.5104013676255261,-0.56287474574676877,0.39020820495737196,1.6529642504307207,-0.82412172564287001,-0.2362163200379418,-0.39037260992074407,0.40903851509937089,-0.092298919653055908,0.72784792981905122,1.4126592997631409,2.2278633308115618,0.89504169186385718,2.8992545715357521,0.97777388629571482,-0.90488887697003917,1.0365317277711912,-1.8364645514072313,-1.4565110404994264,-0.30905471386784006,0.38599085308679221,-0.64860240116020551,-0.55932384210833674,-0.58831960078711421,-0.62083544741502916,-0.42727924685889546,-0.31619083077520244,-2.4311113808420339,-0.97792637566065332,1.8947077128890577,0.60037809553634991,1.7607985113491271,-0.50705066404695076,-1.8223116968899002,2.1732553625985083,-0.74254926275646804,2.0499803816664701,1.6788837453317544,2.0808587449993059,-1.512530372702287,-0.18280454527520204,0.56080562512053733,-2.9548247152476299,-0.018653908412864309,1.0669055840030608,1.2845960273455626,1.6045141128027718,-0.070202643864277797,-0.65913380234858376,0.21115649618856824,-0.44880317957339294,0.11554828975177164,0.64340972043987255,1.056859546253436,1.0279086087855824,-0.48612501749803222,0.82291533273423489,0.40606967430237728,-1.2638102843986359,0.71558628642331268,-0.27911905040716883,0.16808417164934911,-0.71312821547539096,0.1342809391061088,-1.1295118082613451,-0.76654926204510521,0.58577554231868245,1.3935658532148336,2.2965302656529687,1.1438224783379696,-0.032627418401263285,1.8071061787920544,0.0056461091601314349,1.0632143770769535,0.33380715806755806,-1.4967868793896792,0.65160777091085731,2.6386286854367045,-0.21825758160949524,-1.1109780542786385,2.0707019607659691,0.16846397799635277,-0.74348158802008557,1.7971008683350473,1.7166690403260116,0.71198586839732769,-1.1124694573557004,-0.24934297636626462,-0.80839985760539079,0.23572920617703569,-0.47616432785240065,2.1372912293588318,-0.75145889912672148,-0.68791909692045372,-1.2423983802121963,-0.58920442997789146,-1.3196186834200472,-1.1478549815758372,0.60658225739084437,-1.0666472331014487,-0.7880107914263984,-0.18328432108761519,0.33935268083756742,1.0538771662379522,0.17648666401799226,-1.6100766146150336,1.1314445781392397,-0.93924452096911049,2.1220240044327219,-1.1925868795042662,0.10644453571993406,1.009264833382145,1.0814945900678532,-2.1133392383020646,-0.37121799538020633,-1.6016809898001774,0.50980067893091729,-0.83254754541805964,-0.025110750579487504,1.2310039803380206,-0.4061111505363349,0.79373155425777497,1.660903968646134,-1.269860241395512,-1.5670818660561008,0.015433727313993135,-0.62991089448186932,-0.19337824684050267,1.2469107332826039,-1.1228739892789976,-0.70913850032161108,0.17678351704403664,0.45066481931782842,1.8643537322708457,1.194361352529526,-0.1349324133637132,-0.2365518742677172,-0.44211046709310203,3.2620461534473311,-0.28591496109472736,-0.3975233341901217,-1.6802157449383386,-0.26861717967736876,1.3879391556247531,0.87899135129693151,-0.72699138261407126,-3.2170156559945893,0.068494688104851278,2.1901502652230036,0.24788643815738601,-1.7124743583725588,-1.0938407517466753,0.16330957314286454,-1.6319507585336483,-1.0355963245229967,0.57798271691991654,1.6692785726571386,-0.52054974198971693,-1.200813938360296,-0.0042898355681741185,0.20413131939174003,0.61934294271088308,-0.20435200653369642,0.058731568930582186,-0.23007378375318707,1.7021668328303308,-0.90738500656320964,-0.34497466063461818,-0.38533238922907503,-0.081893759948588704,-0.32534864788283885,-0.22021261529216907,-1.7387173237686979,0.86172330975361977,0.31364117917188689,-0.56611286495716195,-1.5691162106967558,0.81784572451561099,2.6534804814557171,0.78289995309274096,0.28767555183885907,-0.42396585986293989,0.19540145315884674,-0.37908144380945114,-0.32574625529130607,-0.17632090668774153,0.79822735560262259,0.90712346993130288,-0.80460267243678707,-0.70111552715757686,0.3218054189938398,0.22294303684072619,-0.62362833915652338,1.7980652357929283,0.94056835740910483,1.0421398630564696,-1.4814489119661474,1.6874579628692277,1.9632617973797994,-0.79110943089633823,1.2669124518262245,-1.2752678347978363,0.05072083917865735,-0.34272942002541323,-1.4774503309173239,2.0649556271284522,0.47607195176347422,-0.22746841459837963,0.15961866305718064,-1.065214316635666,-0.4430875994275591,1.3993288473719905,0.018375122562869686,-0.4261783659466381,0.73672723033335796,-0.16365401313916722,0.081629056197644032,0.14629500053220934,-1.4412449916818411,-1.4867296065158155,0.81879749871161822,-1.1051641962786409,0.56575041926752523,-1.1124769744541525,-0.27814346090309033,0.63269289378980542,0.053437167970112602,-0.40835699907689887,-1.8537417463528536,0.85473771790902431,-1.0041412136241439,-0.08935144567100195,-0.75811252056287615,0.32891340372633932,0.60419672706374283,1.7321053271869904,-0.29024930213360611,1.0603108655378344,-0.94764078848045541,-0.63261519311239534,0.43529127359823033,0.97869269850101248,0.91114964615735727,-1.463058603279499,-1.9890957627155119,0.62783685555881585,-1.0110230680659509,-0.42665024684037767,-0.34772046758082215,1.1255786376310044,0.047249952340022751,-0.38026899926301649,0.5739348813325349,0.58365981960568702,-0.13067220552490313,0.43531703071714278,0.86152067817961064,1.3946043345364814,0.015793599924775314,-0.74808920653625988,1.9104707394135518,1.0483308365551463,-1.0125909195459359,-0.50880074371801376,-0.13637720118673127,-1.3436138476724706,-0.37339750499775715,-0.74056414287188888,-1.4090349533765019,0.69373940731143302,-1.0413609093403806,-0.13137123939579903,-0.22275471358064494,-1.9005518882796102,0.37545010863220468,-0.5447830327303419,-1.337853973347777,-0.5463810246059877,0.1731993515923565,-1.2710422279569422,0.24799568798684138,-0.6392384583060684,-0.27939135481399113,-1.064097884035496,0.65343717793638167,0.38856800889336779,-0.1238031525470983,0.13020026172857338,-1.3360402393187696,-1.041508502415885,1.5060348164261534,-1.9903527717146683,-1.580759277839578,0.93964005088253966,1.5631039918752894,0.061198886265874046,-0.073485264124589458,0.029270619468034866,-0.17247242079336056,0.72124135804876277,1.0539530431506321,0.83497275929572035,-0.2870166020074606,-0.7284372623810208,0.0060451439523613393,-0.86598336081568128,0.46616180993435663,-0.97163536802658856,0.26283273661362661,0.33582326781813487,1.1281790744501532,1.2454464879387495,-0.373688546006894,1.0595952515818876,0.089740203917480985,2.3020781061207507,-1.938314690082672,-0.62027472695795294,0.89806048884324419,-0.9979893369542493,-1.0443012511931711,-1.0319880680705316,-0.20287808766599522,0.16517248849798091,-0.077785903893674013,0.38117234603943118,-0.48142820371169803,-0.031302205986024047,-1.0446215249381046,1.0920226296336557
-0.56175085491223331,0.50247431037634016,1.9605090924055144,-0.52353326555511348,0.83540699160889631,-0.34370507341916806,-0.78471484452886031,0.020630705036333703,0.069902484744761129,1.2082153471279213,-0.74553004193172379,-0.48509948914787376,-0.69459087843674416,0.30562352510915847,-0.77490435118894441,-1.1610910815349336,0.87236378181587804,-0.43491952146134594,-0.24826530243320988,1.734474622129978,-0.46049252934739593,0.36422360149721306,0.53225814984207931,1.0519524792323716,1.6598853486743599,0.34210750337112594,0.060443775837591494,-1.2945382871870057,1.226906995927846,1.2250143511535225,-0.18934975162072942,-1.315825010880072,1.2703101265848329,0.43873171019219948,-0.60532143363143753,-0.89011826424576179,-2.1111528557651731,-0.056751930160183241,-1.0404156637984558,-0.60932147638910994,0.56821587552567931,-0.29969941016631046,-0.032966543591827137,-0.33631678227417877,-1.0220114660393422,1.2830929473439578,0.56549848479681752,-1.6807368641793146,1.5266130492303169,1.3054346542782067,-0.8797107589341755,0.18363623070811846,-0.49989982389271809,2.5533550894406836,-1.2022149504941559,-0.17105406559539008,-0.11983013374742735,-1.3041719738313216,0.80046366912084832,-1.4073543158497428,0.21663094830205068,0.79632311221448715,-1.5099727824823759,-0.4516151644424965,-0.54242605293716117,1.1021183395522332,1.0657289452200538,-0.3966993195041707,-0.26408370162885941,-0.30158324706119716,1.3819295751692084,-0.61231340577124083,0.2972701822400593,0.27740946858317167,1.2389198677978839,0.28230871809720864,0.70952293566241209,0.55441936173474016,-1.0302462493362088,0.12519613257494475,-0.28874456037614177,1.1103323882802791,0.97131141407265531,0.67012870633596755,-0.00050680945013728367,-0.31551647388033782,0.61657213039698422,0.55378114299500947,0.18029764333865919,0.30869657709586984,0.89852489734361696,0.082528081249209753,-1.5167723448872323,1.7699479084462773,-0.62012294483543107,0.073700018193449318,0.10546843918090121,-0.35878475250550124,-0.99848049925045745,-1.7314804471494654,-1.1800148450317731,-0.54352093218977993,-0.40495073721212527,-2.1923921111893585,1.3395868878904462,-0.49738730046128266,-0.66638726882016242,1.1112540165331231,1.0939273638025753,1.5873782217815988,-0.4556924171154611,0.17219849739970708,-0.44986868031986516,-0.52369085472250598,0.32167735419514298,-1.0769723159036924,0.96165023601658994,-0.88156393677826916,-0.5141196949136736,1.4075393737179589,-0.94068328612514884,-0.47796777897011206,-0.32590433901349858,1.3553881021383645,-1.1031845700733915,-1.5748298181620481,0.14922615120452662,1.0090647636844217,-0.86988871364527598,0.22998478209969989,-1.5682288746631357,1.1082662980014268,-0.87740073545380859,-2.0819539364114217,-1.1710995462036606,-0.17940710240169913,0.19709693983859239,0.90243635581958948,0.38462054067686458,-1.418954013501029,0.14012523385793579,0.23725465875540025,0.012947956198095479,1.48299882409678,-0.42834828913054313,-0.16424602840438335,-0.68563348305963012,0.71081263452883259,1.0166184966765406,-1.4555250149997814,-0.90018027863969508,-0.96327771870890344,0.62816983830860329,0.88948283960396646,-0.22766876103042105,1.5129932246986151,0.30375310582417214,1.3089452103830019,0.51748948033654929,-2.8104566657576471,0.95439877866459877,-0.069898001021659079,-2.0836139971923004,-0.82253611882799738,1.2858819486414705,-1.0146749884230981,-0.69409859078978564,2.3494289309344589,0.47674915838555265,1.6981721742306375,0.94759179904894775,-2.6050798500272982,0.4211109139498227,-1.2136505818048264,-2.3825851799587423,-0.82316716541406321,-0.075042346034560781,-1.664412703093668,-0.65560696975970689,3.9149624309231799,0.46323192245146061,-0.25362446825751667,0.21801451448600026,-0.735827166422104,-0.61087002955422742,0.48528747682654511,-0.19963603591247714,0.28840030526901933,-1.9450144567294485,-0.51905523967428946,0.23967534295000997,-0.6084851160835798,0.61767256637037815,0.97770771727133488,1.0064053408851739,0.31446469803870236,-0.90124027450497302,1.2470118539609079,0.76170218265288281,0.98691232617451619,-0.14122315714440159,0.58533274425146531,1.8660306490943321,0.45948871866327612,0.29377927842090545,-0.47072270858201615,0.57888591337501916,-1.3486961990581454,0.94150843229177128,-0.035146973088539188,1.3469891078675411,0.47120642593077283,-0.69836609301994468,1.3345423118758131,-0.64460403029554436,0.82166836495697515,-0.27701507370988582,0.24514003697187639,-0.85313931674377097,0.27784470010122347,-0.31295426143180688,0.48676088926813205,0.20479520577910365,-1.2417050227111948,-0.449339592824201,0.57755525074327674,-1.1966277059838759,1.171480991074451,-2.0174242745927153,0.057945341864472213,-0.9397565642423571,-0.57810613107919251,0.42822646845814022,-0.76986431258864152,0.76379836393539968,0.33683578998879715,-1.6267861707051625,0.1302923898425149,1.2370300376900913,0.5289612730792187,-0.13615399961505081,0.59003512700770355,0.08448875380031716,0.069962221201906399,0.51236529833819988,-0.17061293437564951,-0.0054986153323919647,0.95625486994613718,-1.0303973783453106,1.4024090994288658,-1.307645909961699,0.21163128513706031,-1.0263013163418351,0.27185048190912231,-1.37768157043121,1.1604879605140215,1.7334236305910644,-0.55482000379649876,-0.50062592722282973,0.88260718922247383,1.9566870357273245,0.57511280217321603,-0.70336698126897135,0.31009034968803678,-0.80769540930526751,-0.46195426802549699,-0.98910593395676061,0.42741658738188498,-0.021293159755901504,0.70180385883447383,-1.2622779457501139,0.075566170354266216,-0.29694614724909474,1.5161008577449346,-0.93970761316111362,-2.0940899158419737,-0.37491855090420662,-1.1423093178003427,1.5451618263689173,1.141609820704337,-1.4026016335101881,1.4411609143067943,2.0325318023423149,-1.7484283145589692,-0.14549523001342834,0.085916503047599665,-0.76046746594058046,-0.29287818019709611,0.55646242218996067,-1.1390578395697684,-2.2788501875815173,0.29091360608639583,0.069387313129838257,1.0502954887498477,-0.12893317211164435,0.13344872683991341,0.21388055108659096,-0.34620782854557741,-1.3322071340948385,-0.17359332965602045,-1.3825836675037753,0.0020280924416479079,-1.0144001000737293,0.53215160279207963,-1.0351099460772404,-0.5520633575929127,-0.73019333081496907,-0.94317526584695066,-0.92023105657963988,3.8871445577176531,-1.5141240504074589,-1.3315073542668485,-0.65429021165186629,0.77975745082701087,-0.53637937797745883,0.019770957885125225,-1.3524956231286942,-0.24595558886784091,0.9957527329276864,2.0490704740825905,-0.56953330245446709,-0.013527107007680183,-0.89173026884537709,0.15657563459497723,-3.5392289425635721,-0.77709352293988831,0.47489136995723163,-1.4474168045394684,-0.6546535464882276,-1.3064387417764998,0.11850991733816169,0.52068999130745375,1.8980793573782655,-1.3085915688279868,-0.049297204252579524,-0.078052448040305394,-1.3053425731954835,-0.56752042497688659,0.52543171409470824,-1.6044026545820231,0.96622372234035758,-0.27931893464297186,0.75310697230633794,-0.75550650636961791,-2.6695693734350496,-0.017227867170631187,2.135913046128882,-0.23982407449224183,0.42457296869809891,-0.65716130078350721,-0.17902337600375712,-0.062479014470011834,1.3745341678254843,1.6774708923408632,-2.0210740868004216,-1.7220785683932849,-0.23734261692318986,0.083591848168838134,0.1890134924185754,0.32571139177227681,1.6333663891191665,0.045677642264726974,0.66131850979923823,0.21141952167513137,-1.8990478059673632,-0.079139331703851706,0.6341071476212079,0.33586183761643867,0.65660415568295671,-1.4772853035104059,0.69448896910296132,-0.22824078290892777,-0.53698083250754802,-2.1887238689150674,1.2555525982709939,-0.67580415943569394,0.66306524057407423,-1.238424987053923,0.62554825261404534,0.46596678317212736,0.11339743785752317,1.3514712715917512,1.1518319273133457,1.0328115214823086,-0.18409529180063811,-0.2047740896288674,0.81608672675660232,0.19151718658844352,-1.186746333283905,-0.49625984607474699,0.16402419808846896,-1.1340275747913975,-0.40141852620309842,0.54636360173340204,-0.87560837064495955,0.56753411841901036,0.3651179576864419,0.32596394944737067,-0.5416716844815137,-0.94701283546947923,-0.036196613545305546,-0.12876964409545508,0.13181487456022864,0.76508978894562629,-0.23716457100032631,-1.5530787294154207,0.23359787975320706,1.4227077643839028,-0.23735810082729986,0.29938876078292859,0.81019690429824187,-0.45117975442441649,0.1366574452877159,0.29565880660742971,2.6622134469192469,-0.91929915917295435,1.133258357481888,-1.4612973274275787,0.92136337276800584,0.50872813977605824,-0.33220452984730708,-0.75466737006552043,-0.85873308668466086,1.0911536733393337,-0.8472320650747589,-0.34941454500084146,0.91896996038441403,-1.1761552806938693,0.71217137275079501,-0.4135699673225196,-2.2103859391743357,0.28530996882317738,-0.24625987273759434,-0.58725523250280365,-0.2073723808806871,-0.90839995650554783,0.32531070376051618,0.38552006092092811,0.17797779839988384,1.5620228985995765,0.16443947649459259,0.74250985650623913,-2.1711958983565967,-0.46706039380181957,1.0323682986262852,0.2554105375158735,2.3713613060651326,-0.29602236297844026,0.001458356046899346,1.0435908709713058,0.061304522752675616,0.62671896000944349,-1.688298238558491,0.3066806691754343,0.9563832421114723,0.91944021718465208,-1.2638476287017375,-1.298594880506176,0.76859417221567139,-1.3810749576301349,-1.1680407788558711,-0.85842621383954321,-1.6683124986371545,0.86585453108949451,1.1293658634412258,0.19642276083024918,-1.4901941533660776,-0.10815707365163552,0.14753364693612722,0.5254586065167659,1.4368068784995218,-0.43599215813793335,-0.80260089439400484,0.2132885908509948,0.72739409760987461,-0.91049360605227148,-1.0012360990813105,-1.8068114244249491,-0.51952736085094231,0.51613669745627211,0.58074713509769549,0.8264859634391446,-1.4143583774051445,0.65981610027172244,-0.73092544204406196,1.2299693951416211,-1.6535511166629355,0.4965587568874576,2.7540268259013292,0.87224320579673187,-1.4307888421999799,0.84707543937484886,0.39946264690782218,-0.24758378605065998,-1.1408637120418956,-0.50962701006040478,0.034651372419833522,1.9676851265974149,0.090603422384434668,0.210060432898484
-0.70775283284334523,-2.005146330399497,1.1563461760506233,-0.81711375182827084,-0.31019579873089553,-1.0872425972145852,-0.018625215928461142,1.1844313566573943,-0.071602891313782516,1.2972313007573972,-1.3469897110847264,0.12503695754600028,-0.83237621824107,-1.2624271095349724,-1.4707825303300668,0.5584910262812951,-0.7363918196322693,0.29986016686702366,-0.091227761782095407,-0.23987902519859644,-1.2088078444618786,-1.1537494262395551,0.1671946204449109,0.89916615116877641,0.50705750076984879,-0.36344316881499006,-0.37434616251421921,-0.92882459932749994,-0.56578507335410722,-0.099845705785061203,1.8210950269756481,0.069572651342664951,-0.21422210001016267,0.85085322465647295,-1.6057466023875067,1.1538464620320767,0.21719933527715535,-0.025386950244552509,0.22944308533796465,1.1231268871766718,-0.059906516430743337,-1.6444889458369567,0.01177939706470625,-1.7813998272268818,0.026118538104546566,-0.14043173844714649,0.056042283193278183,0.14991494247279064,-1.096273591036685,0.77258652626452007,-1.2921172154067204,-0.8193353696348723,1.7675029415239147,-0.92642122814208772,0.51074389924602714,-0.38845293484183269,0.66813486663562716,0.60976366710789176,-0.2821983221643341,0.091998663252076521,0.97172794851841149,-1.1578066637537818,-0.054959672955540315,-2.4151687750545308,0.50263799034922896,-0.37210313453258548,-1.4412175276595851,0.065005105646807518,-0.032531655758118554,-0.75727826268622866,-0.93917870042721996,1.5428080278264016,-1.1272350552217791,-0.52210693392859875,-0.10086274498519154,0.52817600450124935,0.57325779915746844,0.42490740951779571,0.74333506331308741,-0.96981480959145916,-0.95680675222932676,2.0874170163806149,0.61780669833128421,0.0056344968287423075,-0.20471820197258017,0.32171575256577789,1.9808359828900119,0.30342499234610104,1.1297027506106954,0.31431105007372623,1.3760652849845827,-0.73426736826053607,0.77987877503131176,0.63793323320350381,0.80528933609850539,0.86545915566464982,-0.070662887306259511,-2.1156689685309296,0.15882174904229801,2.4228733986092257,-0.76141298296537252,0.50547873896478823,0.57835061701974144,0.23046367214762173,1.4022295881795628,-0.011961605033103282,-0.63067133637854988,1.0670845582801241,0.11094690456105008,-1.8462592677274841,0.49367964355153487,1.9305125246110932,-0.94916862841140148,0.86418867809828581,0.32487593585483543,0.065945491631470038,-0.046723465869146594,-2.262772497665436,0.43838442390248977,0.82115920408131671,0.34815394645951264,0.47430020711432785,-0.16023691039228866,-0.38338767732892232,1.3129667113288652,-1.6195617736419847,-0.14773425556106962,1.0552480569226028,-2.1138429572657707,1.2222210043239752,0.26768297146483899,-0.81367185056416946,0.28525596594391051,-1.6335684450826362,-0.76618086665067786,1.5261130945446513,-2.4310340402796662,1.363274198830583,0.63144061998448908,-2.0589561999353871,-0.0017901514704651077,-0.44480237772378456,0.98692466116374078,0.61881606099638753,0.94162943789725462,-0.70231711901347194,-0.9263944286189929,0.41529693543869994,0.1000482453865895,0.12328249377620676,-0.10933303342587741,-0.13363266792732539,1.9362127570325494,0.026583782191521046,-0.15846107979601237,1.0057398334809795,0.21730605075581985,0.42466186588837923,-0.22425945545076842,0.92575388033027306,-0.78308965146869425,1.2043010184568927,1.1262254554157614,0.80541412474179852,-0.10726994667361349,-2.4025493526895421,-1.7698772707718022,1.0763321338566918,-1.2801766907759073,1.3149235960550854,-1.0345855239552961,0.28263287230600032,-0.029112481172218149,-0.67780309057558841,1.1300106431994046,-0.89364656227497852,-1.0647050662011281,0.51650667587622978,-0.15053032580082937,-1.5276144307188699,-1.1695412781334245,2.2891785906722708,0.86523402626252621,0.43818589934659546,-0.22881632855435233,1.2107055051851376,-0.18262147961749059,0.61659282043211294,-0.5041272752088003,0.048054643457409389,0.96283748003680469,-0.84268013608737513,-0.90250831566786882,-0.75581898911280632,0.96680661300159687,1.7284248153856503,0.4398285161819947,-0.26546730095103122,-1.1301802671392869,0.28719983172856106,-0.28519205991475199,0.20301311016604606,1.242879748831488,-1.7921303867827003,-2.1120730368198846,0.37289436412340105,0.839757673719701,-1.1906367155826432,0.59286800071564016,-0.09916115117897345,-1.0058902278767208,0.97647915865966395,-0.414576652738957,-1.1979211095556834,0.77065835999203158,0.64122831433915961,-0.079853157637012506,0.38130144857827369,0.10564249478405104,2.0603668975782674,-0.67155670235069342,-0.34194605427940555,-0.23714558289440663,0.73593967729820586,1.1099315551772333,1.0251444041780471,0.88556169884252234,0.38925089322013984,1.2111160343302945,-0.42237488733739431,-0.62251998500864436,0.1935684161829701,-2.0112364955021751,-1.0479421812256295,0.29919922888295492,-1.2269058411264691,1.433917909948454,0.25935660942027672,0.24009723902329855,-0.30775402495569631,-2.7003881916986217,0.052562598105673562,0.60144192939873919,0.51873742227631758,0.84144210133204189,0.1686762411647964,0.20921311837125722,1.3657411751049142,-1.0919392954183769,1.0125040143093722,-0.054544242885600835,0.78938155103595931,0.70598982804862953,-2.2080211115952082,3.873232133562587,0.39617174770854524,-0.58565184828675076,0.20841754368708756,0.26325822865635329,-0.58870485438841291,1.8827322651079279,-1.221967606192818,0.62454428156164032,0.18394376778647695,-1.3432733202348333,0.50976220421262286,-0.86757424701593322,-0.62452413092985015,0.49603334900324153,1.066337832524489,0.78582808133001192,-1.8982906188689403,1.2462843979351121,-0.21108593802077119,0.30489916437643538,-1.1483281637612304,1.350595761049401,0.91901986915365008,-1.3616441800372299,0.053683079824113508,-1.3587078456189747,1.529719496205358,0.34915931580955639,-0.89267329199515844,-1.9450668653135288,0.44853456553841392,-1.9364564391843304,-0.54678195732639989,-2.1369263060225818,0.26490532283864526,-2.4872573968296288,0.38926104565623448,1.2370134961521309,-0.58032021524745947,0.32794498946310841,-0.50733242787004795,-0.27637001447978121,-0.8752754650361052,-1.1283764789187756,1.1943007350547827,-0.24453797601978011,0.78572680157414232,-0.35528125042588321,-0.43726433259873182,-0.91292597408343557,-0.20386155833212458,0.55869491343675115,-0.5814743611351465,0.046278987511733677,-0.72445938722268499,0.90977230041136092,0.32492880155278481,0.062423536949627691,-1.4674858146642522,-0.86244041603863786,0.94521438671248736,0.8419075881557575,0.033810747374305464,0.3789392669146181,0.34732825747413915,-0.31021175927318845,1.9217871906461574,-1.1140041460663701,0.06802063555012719,1.9503622311897428,-0.57319991959246741,-1.394179220311627,-0.58779957663958438,-0.24639332922217305,0.58909460630427835,-0.87012722941735265,0.24688265061237177,0.80378453591299337,-2.1525848903306994,0.22774536909986456,0.62614365652908022,0.21394266188179126,-0.17587687599741156,0.87319496640327676,0.45646026407080614,-0.78338513163436907,1.3262462538715072,0.99894057499665323,-0.63064933875023732,0.40327106727085982,-0.042565597900409133,2.4401570190164903,0.84782323598725295,-0.63216571867017246,-0.58668036157708858,0.50337223683885701,0.79647856639140058,0.68263365550257227,0.56004382648161433,0.3788361504295239,-0.85404843413396458,-1.7973951443182565,-0.60178788313200338,0.57801735166271029,0.5504006837435006,0.21875084597439362,-0.80405177746961087,-0.32660901567508277,-1.2608280189067651,-0.097380718397645463,0.62106536746569307,0.83838695498586091,2.2407128671564451,2.0916868120427536,-1.0283192634129861,0.075945968632227481,-0.45471694727428358,0.060698347225282237,1.0016845192378057,-0.31049802404239146,-1.6837625853096536,1.6813900219093239,-1.4116828089890772,-1.6722769904133981,0.051050063400930053,-0.1807987601674664,-1.7517289250381154,0.096781124472470254,-0.37493042213582722,-0.5434963437983823,1.3156201344509915,1.1914007458208966,0.36700041412458834,-0.88069273715845064,0.21820319214507997,0.83479631017692846,0.00553130656206901,-0.27994531411874196,-1.6512474292920789,-1.685506857841097,1.9859973793605263,0.030413755508625542,-0.78947695149995722,1.4024323183345118,0.59321550929097611,0.49309976530703659,0.88445799319321416,-1.1114451816747397,1.3533750287132129,0.044193134523819476,-0.58290057409877771,0.35798340472380819,-0.31111719281016764,1.4623689500990862,0.36702654859323164,-0.75006851108901618,-0.36226476771328647,0.29718441010898339,-1.5041598319170952,-1.0121185163512958,0.87180564984670839,-0.96966158577352246,-0.23566195858437491,1.1546567486826438,0.19482305881892667,0.24332281347611034,-2.0610996643289821,0.40037676155915569,0.3627121117641115,0.47438702509714215,-0.27748555457724705,0.12050079100613612,1.0374170686521087,-0.57446016221090845,0.23992558070533598,-0.85180687450961301,1.6640885305075803,-0.055445899915506802,-1.5417769608415126,-2.4309759669717099,1.0458533672011472,1.5636051701888694,-0.77245841267220494,-1.27981011057269,-1.5451319566173318,0.40263415045781287,2.4264893324151093,1.0108796644231286,0.70074519967828408,-0.14023303837553774,0.017949841539557886,0.80444243340107491,-0.84772780869673237,-0.23969632354849016,1.1863295526762261,-0.73663850539351627,1.161979200919921,0.20125578267716487,0.96323684625046413,-0.29236191413164681,1.8746487989415135,0.18649106684902483,-1.690762484769526,-0.042572614808298152,1.2504299930096223,-0.46875599297039217,-0.89867134860382181,-1.7662518781628478,-1.1301905598193924,0.36484689788349306,0.72894194038697291,-0.061764863716257133,-0.12753123112936993,0.73591760840944986,-0.66616007605599137,-0.41217755189460814,-1.0420538847814682,-0.7294532633871269,0.33154112241101569,-0.018114942519844829,1.1349277671528013,-0.94715083693532831,1.2507996981712335,0.44216544391317986,-0.42024308953146705,-1.3948156936886222,1.2504219047281273,0.58577450176695034,0.70461321767866136,0.11875009167574282,-2.9785635911996549,-0.95320432697113655,0.40938399706092954,2.4836780499764677,-1.7188055699174818,0.21874182999780756,0.71968208516110999,1.6455618655612381,-0.17233240788109377,0.2837460640892211,0.36756453646870046,0.025024462870918238,-0.22111741180741967,0.68978926294396559,0.019120170261760255
2.0610686884539549,0.98574284973646209,-1.8781946820111042,-0.38547332787398175,-0.25182648432985771,0.67149471524417848,-0.5797388284848527,-0.75476929589668307,-1.00335157303054,-0.22165211178390715,0.9074174616991515,0.39233219402576514,-2.0713259871034793,-0.25134861108962336,1.2368965350726937,-0.8110409353811695,-0.21061959200862468,-0.94016465543633709,1.6973680125602726,1.8594801567414063,0.90562170872681158,-1.4185696399201109,-0.45422084699587728,-0.028322322159291147,-0.77495743230823744,-1.582724322623184,0.74255049956833075,0.61220644450611628,-0.47794464167220591,-2.5049119142567404,-0.97737458959203838,0.5813142658883016,0.091800432482850858,2.340244444384008,1.3048374060486607,0.88309468528320179,-0.83479874886595085,1.5133520214682192,-0.52708734264464108,0.15960887162540033,0.38379779161719202,-0.14254919129038277,0.099351945639375411,0.21937701064919671,-1.4893478999611796,-0.023697457914913813,0.81810221350142687,0.68248340299445831,-1.1546967538365653,0.30007172824651285,-0.11597376989402597,0.025112782652136283,-0.024913392609335262,1.0715329600638845,0.31529407033467399,0.16651382267928963,-0.054419037415653806,0.20189230292070348,0.041028797366963181,-0.96791425535038422,-0.47940490994072921,-2.2913810467229276,0.57570366077397461,-1.3152705182059217,-0.20454061844311089,0.01558800182719818,0.15181514724947134,-0.65769483982550891,-0.80004744933060157,-0.78467625738932312,0.0024746246515324598,-1.2833166127923767,-0.0078513245950623464,2.8851414184297184,-0.15505422415975753,-0.7263668106883544,-1.0807199425214591,-0.12751804826277974,-0.28096606319894141,0.35894255006909181,-1.1895939487445999,1.6008180836737447,0.1576399119832915,0.91947839614827631,-0.36171743875489887,-1.4204727852430001,-0.65986849462546726,0.47053562620877204,-1.4475468597045844,1.7555911593912796,0.50594758353507197,0.50818281540034771,-2.6013264009924852,-1.5698074915254696,0.03707178137910442,1.8458127816157135,-0.62109904154952633,-0.020329822415811334,2.1854317893991246,2.9223763307942865,-0.85643649907951158,-0.075326951032964218,0.56306308710277009,-2.1585415587745769,-4.9016982151479177e-05,-0.03563940301604885,-0.10892824732280033,-0.10772170978031653,1.5241671562190722,0.41921672715034519,0.52351943211816543,0.057457050375419358,-1.1654555656486631,0.11270274743782671,-1.2411936758051847,0.2472050322570751,1.3300214392409639,1.1167599499935708,1.6943291304660062,-0.029953049045164958,-0.67859374439476761,-1.0009471193662451,0.90816890781082327,-2.2173716416998248,1.4602727953749108,-0.57482905438939957,-0.066260606718571383,0.72327243783522688,1.1258727595403419,0.011479347886034198,-1.2616181991782802,-1.3686567423258993,2.2659740849280707,-0.4099666375528358,-1.0715544878497201,0.82493276004697391,-0.47910319248385647,0.11424008074795564,-0.59323746834521218,-0.53387449170420853,-0.78117453781457746,-0.29339075940276826,-0.29609255857342559,-0.89711721207088979,-1.5794207935115951,-0.4918575364519816,0.0073399939017835545,-0.12389839323459435,-0.29394064704254402,0.34173582546036341,1.8846745432714789,-0.67475957041955337,0.021450301415090724,1.4639053871612726,-1.0379511962341725,-0.59097624922230196,-1.5502982365222238,0.33967503336430488,-0.0084702923753792268,-0.70133380883096941,0.8461146915840051,-0.2664279875138495,-1.3950120186742323,1.0751739603478638,1.2203811256743475,0.23621234664654933,1.5707513299412565,-0.77656365931937943,-1.0518143891151377,-0.22037631106062536,-0.17066450066967204,-0.93293442110074698,-2.1521412670977909,0.42600107958675754,-1.3889752514676239,-0.42909144697219836,-1.1255196139459192,1.4001024587282984,-0.6613345696268389,0.92870672505387575,0.31286552720635585,-0.30386335874479986,-0.44479528042650202,0.019093227862320435,0.4514150010900107,1.9749497725814595,-0.46275526205995832,2.067503497171145,-1.8215710925905313,0.67020724776510798,-0.33912085026635125,-0.34538569170566708,-1.598729251752987,-2.1888421852027182,-0.54629544870130498,1.7208764143683388,0.68261124166570997,-0.87401359884933805,0.77340096802721803,-1.2807040121602686,0.48838998086987312,0.088297916048656402,0.12798530844061043,-0.57620037895794507,0.53130240107465787,1.0421805808745992,0.64611593764012665,-1.2756411556237928,-0.10411906836961216,0.27592800683637841,-0.90105198037574896,1.4989322001314351,0.54884698838201929,-0.071786375732964758,-0.86571452471666666,-0.92877412941381399,-1.1422095251373932,0.79259503126336317,0.95951178456430863,-0.36920337745190923,2.5328506541920599,0.60740536609424656,-0.86662597262872954,0.10576477916831133,1.0879356539581975,-0.17651751917529387,1.1188322540296514,-1.1912802141577568,-1.9119460453090988,1.5631116309183863,-0.53364513307051542,0.49231400545637038,2.4112016908456395,-0.1856548925154172,0.8634838475862916,0.54404555433210633,-0.20287657765366723,-1.4203893580071978,-1.5416152686365197,-0.0075034985094499362,1.496185825543054,2.4002724144991134,-1.3533480801257041,-0.74284215241198592,1.3898325568069261,-0.79041506466162537,0.43895335289873211,2.3045502136766922,-0.38267448357182648,1.6276371776301928,0.70081156028197156,0.5766856627703596,-1.4956039416816038,1.6120241200582901,-2.8728538905507297,1.8249494340105321,-0.18655169817087935,-0.33397913581310756,0.74610601863086168,-1.1420089065704482,1.6821177201429336,-0.1356298451973964,1.6385977023021752,-1.6337377434836944,-0.30030560451632771,-0.088704171150689876,1.8019127155101178,-1.0785849746637639,-0.27316719917396903,0.18850803880866268,0.24985282540972772,0.1279735634598809,2.1373679207766139,2.0222400752843885,-0.35759384380351045,1.3828848696431553,-1.1430264565310835,1.153574575112934,0.29069035678830729,0.16866868489558118,0.97212624942633385,-0.062293478875187228,-0.33447843635384611,-0.60694524062739663,0.95464206991737177,1.1325899021047239,1.995136299192255,0.079138794338436125,-0.79520766945427512,0.34526667837475794,0.29692049163855389,0.40910611417841369,0.1449867480124398,0.015532287617036599,-1.073314637043836,1.4631729323910989,1.8778293648410165,1.4906256268849609,-1.1747772173643487,0.86471269994877886,0.16807691245837425,-1.3800880684760253,0.84497296600646821,-0.099408746735900125,-2.0630157150637509,2.0908315792308079,0.27524411694550965,-0.5835175082688081,0.45863210749777922,-0.55078873627652702,0.99622507240821101,1.2878691269173923,0.49581619730702392,-1.2757020088166655,-0.76201649133049276,-0.56138279648980982,-1.7713198885028059,0.67254235183779254,-2.4119725363961151,-0.39003396741305485,-0.6728923053981174,-0.44299075029734553,-0.060896056786072683,0.58534312913170716,-0.80210005897548231,0.50117696515571564,-0.89249890234666573,0.76315766606669366,0.37342676017531995,-0.43741509731116135,-0.99793388058020815,0.27368385326952799,0.60662676624032663,0.73394020525449988,-0.06852230975272923,-0.98117432170244057,-0.0020112257760215241,-0.12314137637789403,-0.71656286019636839,0.43046308641526992,-0.090361185958408738,-0.28355101273663291,0.86516364322353501,0.72776437472936584,0.86010818097935582,-0.15560892460173659,0.75806627635762958,0.51199186519367801,1.6075729277691071,0.33354870506684769,-0.07715187725002734,-0.19898983314121993,0.72251385891652498,-0.16854809995593845,1.0464272543898827,1.1870966992100613,0.11905336185994848,-2.7392978097121117,1.1285524663818089,-1.3554382339691904,0.98123658910858125,-1.3425318852194126,0.76754114764576054,0.37429133124068614,0.35803881536328536,-0.23066457510894292,0.047696157443485744,-0.36824158807712748,-0.39636157923662774,1.0870335099136401,-0.20689901471291192,0.3089692730351366,-0.14069228792125926,-1.4379224162696311,-0.9820891199662144,-0.2684950864735377,-1.8271164313435149,-2.1968048885849716,0.2625052864206629,0.15980211901784391,0.31616026472239389,-0.59055986032207786,0.18097308656529032,1.4018922579238537,1.2963719408017393,-2.059775051107827,-2.3479710934407345,0.42200754548189479,-1.4439797133039853,-1.7323102577828469,-0.81162418699996475,0.11742910525051298,0.25776371328709935,-0.17309672963935097,0.40486761429893886,-1.444863575400877,-2.9438651375242761,-0.24264897646827449,-0.033009685454442009,0.28138360404237139,-0.72186133934234153,0.14516136813395727,1.7977628942446,0.16705569399139866,0.17332227662724883,0.16420333685366856,0.70362247096269626,0.97826939150204395,-0.42913953180204978,-0.1824191426375304,0.1640391326944006,0.64694649014551742,0.35453433909676801,0.5035366120357686,-0.16839012578745083,-0.33080684702480689,-0.51097933358172343,1.1575330084890778,0.74228667625929612,-0.9498931124457054,-0.50627026472884529,-0.67432892028338065,0.55591408145647825,0.93438920869360353,1.4766549447982622,0.86704494705690749,0.8281549039757754,0.96777701757948531,-1.3524158167054749,0.73916605488430076,-0.4519257477325247,-0.4869937698027097,0.50577225463774533,0.64128918120171452,-1.2911467937898544,0.96350049125063253,0.21939253533879693,0.55530208482854249,-0.10610672020021496,0.50762600249279466,-0.65149934225570993,0.43812579160184295,1.4760817209856647,0.38254437388739077,1.5344605231522899,0.077075620051202706,-0.99180050801463138,0.36841383027736047,-1.3796467195157167,-1.7848231711557137,-0.70178042204726376,1.0378909323804639,2.5006879463016971,1.2724903449754874,0.51076877015645861,-0.44144727615712237,0.56140197364074829,-0.38097056063221768,0.16460793709788155,-0.13130292014781236,-0.47339671147831458,0.47038093247475443,0.66394243412447751,0.83502861313660015,-0.44664176873276373,-1.2396007775369671,0.55587540385027923,0.6427945208384237,0.56265456429644134,-0.48822879916493184,-0.12455670067395623,-0.93701796965593664,-0.35430970150745938,1.6548042247956911,-1.655953858440707,-1.3370492217923,-0.014707797941971671,1.388663466499489,-0.4147501235915842,0.49525119412766383,0.9984082987722287,-0.47970049936452436,0.42028073917094161,0.040785223685727706,-0.11597920681380866,-1.2416134562125773,-0.42839865963448565,-0.5695566164393614,0.21351605634730014,-0.090580619190764808,0.025798458354429229,-0.99774632180601686,1.3521696539097767,0.86337846923912487,-0.63883978666252517,-1.0719454753783424,0.042694949603861075,-1.0258144535745894,0.41562910569152328,0.090601106909108248
-0.041401862887144231,-1.4621633604208706,-1.3405412933125374,0.0045960939624561936,0.7161752477536345,-0.91411408019980611,0.84991803348768147,-0.4099381625322957,-1.7232904321822009,1.9566992287442662,-0.44071011100131019,-0.62409581170704642,0.72829449515746592,0.49848024526437978,-2.552845419103547,0.66087502656585573,-0.15497725840823806,-0.10327367359453836,-1.5715628091595704,0.087668860684850872,0.32486545884114554,-1.2058747300172385,0.67080438115685859,-1.1413886089296612,-0.17529358372508577,-1.0996849244619755,0.28924649391061619,0.09014141038301085,-0.78837992553667269,-1.8022385686108471,1.8595419376995013,0.5416663127771385,0.6893126250730166,-0.059575133118177359,-0.55778431181072274,0.028709670808184623,-0.55058685113740968,-1.8599724811744769,-0.5436786484064009,-0.086865404959406353,-0.29829893604970398,-1.2146253478826645,0.60496448567866612,-2.1939764825559371,-0.26524247261397932,-0.18973058772419352,-1.7731357220538508,-0.29643260361087476,-0.99903380342945391,-0.087416117841514804,0.54708337601185886,0.30479822134672974,0.4427288116356341,-0.38807206054049403,-1.5061677211479172,-1.0725022459217477,0.39972589150540927,-0.58177373536326482,1.1006318594921987,-0.28667830889756685,0.5866446913654183,0.14156381693388767,0.56097897560449617,-0.025433222277483233,-0.50200419210959701,-0.58077199952074865,0.14003584760118115,1.055582182930465,-0.257407005961719,0.51083623216378815,1.6806309230366046,2.4559003904761258,0.10902638450252958,-0.10671036445654856,-1.0338495185726997,-0.079401785063124924,-0.82881806145553216,-0.39575471653809235,-1.5064598181430915,-0.92672650791138089,0.79370501745519773,0.33224125752377992,-0.30861562114306168,0.29897408451811847,1.4408256576092588,1.4298559397139929,2.1491333743499705,-0.45214896132225207,0.77626688349039585,0.53854111894552281,1.1012417902626599,0.61195689444772372,-2.4779038541446137,0.064973449312368023,-1.8668267134307277,-1.2559356624956264,0.81906441136950037,0.84697480945896231,0.085633500392692199,-1.0096543019997548,-0.9761540534066977,-0.21485473442072026,0.33108375293426534,-0.52706631177888796,0.020569287278966852,-1.1904314931498126,-0.069484437238789734,0.13246983441451735,0.86502231206930358,2.1770422420541027,0.87649376050048267,0.78833657933003332,0.52932419299976929,-1.0722294485071344,0.46286683795084299,0.069304621476291767,-1.5775315451292202,-1.2670825536319932,0.086694465916595631,0.24139350619270705,-1.854761836539335,-0.57663205091666825,-0.7994242473424652,0.58481724536064761,0.019427964294498855,-0.92862683359487785,0.45247777288198993,-1.0645149082338292,0.021437652649018441,-0.46952859011802128,0.14950374216173534,-1.6526468803318231,-0.82124076098016685,0.040199794577578531,-0.44422999652956591,-0.003889910743827339,-0.97323923990782779,-0.93276844771228351,-0.51639020295679783,1.6263261575165169,-0.64421700610762067,0.41754537751573889,-0.41597305865697914,0.27678127877610009,1.8496647187116462,0.54941685869374779,0.33509737304688525,0.84434819732943467,-0.9884343122107625,0.81324909093090758,0.31185557023302551,1.5736747494552967,-1.2354204251813017,-1.0350993308075713,-0.078177282292578268,-0.30780703864434888,0.19022843619031701,-1.1504881935407651,-0.49512600573348675,0.91435187475073632,0.60131750148731855,0.50863918685789089,0.24861343662481006,-0.65102175234447457,0.33868889151635212,0.49671062906538987,0.12934761415462304,-0.60487162594514887,0.2127413338105143,-1.7332135271574483,-0.54879863815427299,1.2090160693584582,0.77212613533062491,-1.4752252225636786,1.3442250736754258,0.28444201923378704,-0.082837454804531641,0.022782559012407035,1.3835979047853879,-0.32079056596283001,-0.0079212038802879622,1.0447181469330873,-0.73847747751203252,0.22636148855423316,-0.0075607088624880517,1.5447824719866161,1.0744305816576156,-0.92763660048953966,1.0438997850471414,-1.4073655678015826,0.40201691457981503,-1.7870969282436253,-0.77906147193821096,2.7065159715608851,-1.2378564499112299,-0.27143050327640966,0.83868811519025177,0.96258373749962467,1.0074837577783184,-0.51094943484102306,0.056171298045633457,-0.21956372838000485,-0.030070747364653948,0.77243420082634251,2.0739143384104382,0.40452031915533587,-0.1202041609968518,-0.83664420788225136,0.69983230125687135,-0.075875065312812878,0.38234294222615434,0.92256141313999918,-0.52833791370649186,-0.72676476249119759,0.29395199610649525,-1.1436968857101788,1.1534465206660811,-0.4903000144888795,0.037575945414553606,0.4154182434428626,-0.10959219244448179,-1.3144631171078927,0.49682629526197825,-0.50825329085952498,0.23884893793912526,1.1103302125380536,1.5785820777668236,0.89611528408351782,-1.5777357096430433,-0.52395350016343945,-0.30210423063820935,-0.041307091122896357,0.89303419664654704,-0.52191431783987718,1.2483885496515084,1.4912486464954495,-0.6848973643947146,-0.37381269789464983,-0.34387159368925324,-0.30009193621364383,0.73195710987766516,1.7481215776857832,-0.56938603312527336,0.61418838395311171,-0.71591850425799042,-3.5865248601004143,0.41260486109020489,0.045459608060646153,0.37791439164907353,0.15601469710190777,1.4428816238775257,-0.027885018404756153,0.98277515134510918,0.11321905798365176,0.049261428621808018,-0.41610838891226448,0.88026065952723198,1.1198315886438992,0.31633299174925777,-0.065379338820570176,-0.91645914371274306,-0.21537213425111815,-0.71849636385867388,0.60884930169882767,-0.32902524354197754,0.76669059258657846,0.30978647153129057,0.54379881265202512,-0.14805079802016294,-0.28959680085433276,0.8169537993318422,-0.29746895963114145,1.1052422743946229,-0.80657221520349143,0.0095155420137011931,-0.16996460118141177,0.65704115913989669,-0.26685420068778254,-1.6848611264135507,-0.45498514141177593,1.2973071161171281,2.0630370634997699,0.11578675950549565,0.25243892974942289,0.17089703963057445,-1.2317307557140458,0.19308181793452339,-1.2439916795104986,0.257197997453465,0.17776867625397338,-1.0479078703607454,1.1833781643678138,0.83530854994762871,0.64847826637968731,-1.4779782895122222,-0.81915389946406647,1.8683860947158326,0.061856440309284805,1.5340136976315124,0.71088948615111758,-0.14977107312861357,0.0068881130006320703,-0.39177992529875749,-0.18111852494169822,1.4096042222258189,0.50097396978052766,0.29935840015458959,-1.0138612564118641,-2.9742352134596834,0.90578778812426108,1.611268149240124,0.057288829477371447,-0.95915694716691435,1.425168791793467,-0.18559023038608888,1.3364849891867581,0.48705559470787652,-0.99824078876680822,1.4006055591528423,0.25374366138893401,0.99592489354950708,1.2260889752475126,-1.10320040931176,-1.4636919566352553,-0.15755653008810214,-0.039249240420853877,-0.68609596156945629,0.18294053115627829,-0.74927840223460018,2.2711621095698749,0.77188447982688535,0.78820993450063503,-0.66577640639780911,0.0080836379345202661,2.0719313088367466,-0.52958029110994587,2.4059978184830069,-1.0548873867956192,-0.29333002470406216,1.0644392724047016,0.60051583849535983,-0.65139063490118676,-0.77399969909773159,1.4820420848406402,-0.23783477906252781,1.3114056597127477,0.78998060847429885,-0.81309084400127518,0.35317256537703262,-1.7684981847486334,-0.56822648266130682,0.88718656596557011,0.68991626143707674,0.95457093413068139,0.33896495422927875,-0.53748444572128229,0.19965103643540211,0.2842510351767501,2.059105997182531,1.3148216573400844,-0.91864783911038905,0.070352207885454557,-0.26861417068486898,0.61377885553774514,0.59820499949081385,-1.0844417350414131,-0.33097434094584999,-0.25904272353960128,-1.3849223006363949,-0.33672265298799431,0.62435466236970472,0.12982923455173107,-0.63078191384236426,0.63938800380874161,0.55398270550862461,-0.25347029081404243,1.1775915431859207,-1.7456076330435983,-0.16723068128008545,-0.36843411506622969,1.7236168484817573,0.117760636354469,1.6920290678560586,0.032994455559687288,-0.64091097772687811,0.13070870666341891,-0.32561609944428099,-0.7691005973095838,-2.633299316635223,2.2227966199159193,-1.2907965214388561,0.41656974720317164,-0.044903057552847424,0.84017657806827939,1.4865009944791814,1.501873234263865,-0.73130180817973178,0.37929664046863704,-0.17350302224639622,-0.35000572420185727,0.84953258927403674,-1.054702467531929,0.24675255293588894,0.060543260692725739,-0.99691930668958462,-0.85656843376988878,-0.01600779077715863,-0.40298054576501713,0.52945970906245232,1.1530119861267765,-1.1599243655645948,-2.4269848781082373,1.5213436710594002,0.16899157689820948,-1.5664530565010142,0.38362983865482425,1.732673368398121,-0.18573574580300142,-0.19532031838750694,-1.8549279154578973,0.46301464056953945,-0.29168049925486944,0.10568356674277379,1.0813615220622015,0.47170699789237647,-1.749666621942586,-0.94197426458713318,-0.36942828859350529,-1.1311999331502336,-0.21332648251492603,-1.5024265866891693,2.3688304448010622,0.56454755374083954,1.6620601146888572,0.2333911269793281,0.37808977417932071,1.5325441059115799,0.12080953885225587,-0.22063877791527259,0.62629480089872502,-0.093825837213891775,-1.3317606514607683,-0.74942716954196897,0.1751696895812179,2.1624178129152902,0.034615967805059468,1.5004148901676047,-0.49281261013592925,-2.346931756584516,-0.28211121673466844,0.089983642260603416,-0.8022311332214076,0.33043302547354803,1.6168104846462696,-0.23712490776211112,-0.92356358311958842,0.1292885928680709,0.57504476722036835,-0.79876391077654252,-0.7856745515393827,-1.0802115114367639,0.41367806433590071,-0.58128106576249183,1.1525372016419233,-0.86170140293557207,-0.4237632425762593,0.20183390914245555,-0.2092717412870842,-0.12520925115854992,-0.62450721782769558,0.6423188942874225,-1.4666974733944531,-1.2470389901278889,0.20752069108654,-0.74454970393978026,-0.8336116356904214,1.0232164563284407,-0.8292903113042398,-1.5917993512097515,-1.1220472218182529,-0.039543670982313574,-1.1198769553865833,0.61181606382249398,0.66416186468019722,-0.1670095060513378,-1.6847917091419617,1.7433279173841343,0.49478866469198729,1.3123805358808842,0.043936895862079953,-0.22510659395870097,0.13433863077442071,0.3192178252778351,1.1955144267189022,-1.3052756637609351,1.5578987357547618,-0.68797386993871223,2.224598932267043,-0.80545395287703125,0.58100081869731623
-0.12507871030258239,0.39586807313107536,-0.1211387037523711,-1.123362887375537,1.2429015266111012,-1.312423655957355,1.0997235021498795,0.75463731820698066,2.3823327334166335,-0.35796196901077659,1.4675672527884049,1.0160300371549116,0.53027207038823532,0.43978379706888238,-0.39947266650448821,-0.72489779471155169,0.42863782295120761,0.35513964378477608,0.023533629861867751,-0.24035543521370381,-0.036734571222434377,-0.027123160817586995,1.5432945528613624,-1.1012420189526981,0.87712930991328109,1.359435411303298,-0.34722997953687124,-0.3075706665800737,-0.49297829745728189,1.9936446848461096,2.8560747051999549,1.9139342478285708,0.13122603452150766,0.24995663630492065,-0.89594916517649414,0.12549633179216235,1.215876204059227,-0.18852315849492168,-0.026112254413822297,0.29398234023185627,-0.48375775090333756,-0.66685338210808842,0.90996670582671313,-1.4380743154359805,-1.0010549875734198,0.46891689878004511,2.0779212329497017,0.86997515410323989,-0.39632886580296262,0.80350805434115868,-0.028611549921670233,0.72252461702001924,0.27884228759950486,1.3475285218792725,-0.42415452140338972,0.32589861099471479,-0.43846636191610494,-1.4025927849173194,0.42255581791186991,0.20256610121035615,0.019804316637706949,0.4303821085024277,0.15072090884075984,0.77706144472686334,-0.95711297808061058,-0.40169219776446813,-0.72842690195592508,0.10452838222575531,-0.62842177814291555,-0.031626338058902699,-0.51894988628126471,0.43098253517877172,1.8544328873770719,-1.1502336744129942,0.80281578400733333,-0.97946793960310075,-0.41882079131191097,1.3226512353840558,-0.67747632431711524,0.44004250700211484,-0.57593384609414777,-0.14781824526861109,-1.1295149180637041,-1.5918705665578843,1.5940451575234387,1.0606972006992295,0.22653025368171253,-2.1377874190712909,0.22681719558582805,1.0849979428091783,-0.75325338590198598,-0.59698669340947164,-1.0919939511837566,0.51694700312866571,0.64127896134233442,-0.17769235438437783,-0.71134358519265806,0.82808190375005286,-0.08770641623194074,-0.99261860721690909,-0.11371560083582045,-1.5918880586850603,0.35267592241540713,-0.34507195778256872,0.87791089641161146,0.73024887315232567,0.22534055697994193,-0.30510216622639402,0.3044648578664802,-0.74247034949163138,0.54864432039081346,-0.51105200573245702,1.0274914128935482,0.16703831180563222,0.24465122515378424,0.24733974170327952,1.1112993181112119,1.1202535492963006,-0.58286054607330995,-0.6054273354965789,1.0160098398152875,-0.42575264141628505,-0.063211116627571839,-0.037913717783971894,-0.40821901859512427,-1.1389073530719371,-1.1433106270883024,-0.13337719729707834,0.075820064785826355,1.467638963911841,-0.042881183650831656,-1.4180202544417055,0.43737979461858889,-0.38927650788589502,0.87592996266102541,-1.4161728866901968,-1.6629420120623752,1.1116280900626725,0.30697791079893649,2.1660936700629905,0.85375513512696721,1.2539807453958707,0.28692672269696579,-0.024059595717886417,-0.33271568535836332,-0.07175501584086888,0.10493641848847551,-0.51493169489672252,1.2310926069591008,-2.1967131883808118,-0.28742620371182487,0.20936324024880965,-1.2910511546652588,0.37056272492922826,-0.78203837494686168,0.22311855511693332,-1.7727099963188206,1.3505518499642277,-0.00027503306958117073,0.54570505446627726,0.30660016283938152,0.96212799636205526,-0.64812017760232155,0.44860557912724414,0.6563662654304997,0.19205017005275635,0.31246221871757007,0.5626827506433576,0.49191071327348962,-0.50626088184320683,-0.47252083731909655,-2.0119893848761854,-1.4293099017989692,-0.59992005398634696,-0.66655857034233712,-0.61329743656341973,0.046466037979279659,-0.22158008774392082,-1.2480797051392418,-0.36940285590986371,-0.57838946552035286,0.84626856503041636,0.26187910967402322,1.3318517949423792,0.67848439701762064,1.1656814742044173,1.3019625379776363,-1.0642209932162598,-0.04525069637432675,0.25566670587199519,-0.52937334027093341,0.76586494277546235,-0.44600474421897052,-1.4041820305711026,-0.35017725976429115,0.98585082890031872,2.6741167832039126,1.4053249215803871,-0.37379309604193822,-1.7119787842765826,0.73908422108218463,-0.82724481003669648,0.65684169659016178,-0.61220209360688849,-1.5264520360863461,-0.12782416589019599,0.8403175405172254,-0.37263772959712693,-0.92820121108525633,0.22759450076515778,0.99662740229261593,-0.14916964171910271,1.847657506052709,1.778830964308409,0.68870649138131956,-1.6422043460248377,-0.56676869163030752,0.66134763686591935,-0.25436772118479439,0.20028031229771479,-0.94377717137355333,-0.67096287027420032,-1.0615458118712129,-0.058439164125950772,2.0873928612248625,1.1986343342573784,1.2643769962181481,0.71218166980063757,0.66772672939238842,1.3813646897309537,0.13220878063735086,1.8713563507802529,-0.38922967477396891,-0.42705997503908716,1.1623869493900165,-0.75346478596253208,1.4447361698708323,-0.4184996116617255,0.18511021994801047,-1.1130989581428774,0.62193739706231599,-0.81879857453397686,-1.8115082047626072,0.43453216398530808,-0.73165982942659058,-0.56837413158040273,-0.034459734804176204,-0.81743851520546196,0.63962077847374965,0.87652497738539148,0.8111618788431586,-1.4769454259689523,-1.1261888861550948,-0.26122885615129304,-1.6792306535974932,0.12787465814217555,-0.47224082040075477,1.659695616679745,0.37576817565536236,2.3983767832371901,1.2464694290353284,-1.2714614492676974,-0.78331754214748428,-0.96821559237480337,-1.5105441876110359,-2.170692591395758,-0.67636390715804195,-1.7277719730387833,0.90284794135864144,-0.28525010064575174,1.1274781304540653,0.61145591369412955,0.83715463679133961,0.33307038466712446,2.4209865026176391,-0.49904131200725249,-0.19110342646170606,-0.1532592797708571,-1.6686368549523154,-1.1685120005181928,1.2767951611718591,-0.70527921631663681,0.87930979854253632,0.44619094481244037,0.57191124569900154,0.46227883381707119,-0.50122381706876484,-0.0599255612189976,-0.72891207869847285,-1.0362077636332192,0.11939502318780038,-1.1225532243967569,-0.27234275773647398,0.066263307312715028,0.18782175189652794,-0.90617941384966494,1.6500707843385229,1.7545922915184613,-0.013965162921784886,-2.0732761943202935,0.59287345315961815,-0.70088561012651374,-1.2023915120804198,0.044645286768071314,0.10889945923523073,-1.6096538491569994,-0.89035570889207682,0.48481291343999461,-0.37599654205199518,-0.40480580911006542,0.51739829568010209,-0.57894239149958904,-0.26863129572640349,-0.49929962329184036,-0.44138391829253282,0.84519911430426042,0.91626013089737723,-0.57179503622324157,1.0487940842667296,-2.0289484250875898,0.3659971072667112,-1.5259310427165398,-0.03257927445954617,-0.39344351186241833,-1.6895352603288394,0.066868733959649249,0.23126020829175961,0.28000649229762903,-0.74441144708775053,0.53753979832698162,-0.093511212905628416,0.77046949892140071,-0.5316167195419601,0.41531080448944269,-0.59751895111331355,0.02801532293716558,-0.95349558895757403,-0.025352304915392223,-0.34195373441116234,0.10670573366572472,-0.8771218543500453,-0.82683540068079986,0.028483879436903756,-0.19454585081287082,-0.8531583802543814,0.021614247101792602,0.77640651431316943,1.4971470584504332,1.0576305392614185,0.37867449970009859,0.028214927063938973,1.2100617320638212,-1.8432662152712427,-1.7093672697377436,0.32006367653710327,-1.2351430241784587,-0.89958090048753825,-0.68178262535832601,1.3989731025531842,-0.55893737523371934,-0.71786389314459786,-0.71168090009621432,-1.6642728403541571,0.89302726585600622,0.18249418836134995,0.71436115307715464,-0.51013577578533897,0.77643460331191638,-0.89161137087388131,-0.99785299639802816,1.0970395919828768,0.44890811964321226,-1.233114746591317,-2.3866183922094271,0.39917012107344285,-0.017026997126669018,1.2850353454159991,-0.76400487809226325,-1.0228942301886663,-0.51303227681534291,-0.61393480237770426,1.0982947649496226,1.553555021723855,-0.445556065215018,2.1986660999043868,0.66576483779710283,-0.0077405839993375516,1.2940775223253185,0.82656107322778516,-1.4680238535351635,-0.88773468775064457,0.39733138257801359,0.46483424471605472,-0.069589008961547169,-1.3400448002192142,0.25702764675351047,0.45157256800481038,0.68850724127887497,-0.60749743089999941,0.59430702724763218,0.05398983295483771,0.82301543207461403,-0.70860329940559541,-0.65209641439290855,0.085815770306562802,-1.0770842442101456,0.89225958394467475,-0.43580216059115234,0.54254304913073492,0.026637628663505695,0.38605179821145547,0.45712621201160947,-0.36701789529239043,-2.057193077857896,-1.5246041424940553,1.4288408469903169,-0.18205773426759417,-1.4713729442069226,2.266265458318645,-0.74967085582317072,1.4914840164955698,-1.5492077869246152,-1.0164258950534033,-0.45414945254840972,1.3627962180888171,0.54521556777145108,0.58257827558924391,1.4755404483953705,-1.0549900113379218,0.093103797193011123,-0.1672753482266264,-0.91961638985454697,0.11593417131080053,0.38526378662087601,-1.1751286027665657,1.8582394582019008,0.038966330167825046,-0.39047370607335991,-0.23605085120399588,-0.33584387610007888,0.73156348224096113,-0.50409701426579756,1.0903725303887024,0.23166846037334599,0.50433600981071836,-0.15295784017657302,0.0010620249360491251,-0.10425153653140039,-0.33378722532709781,-0.708684972377158,1.1989392113263524,0.96266775456281173,-0.55327719487181304,-0.76050275758555974,1.650460159718361,-0.43647854609002151,-0.13696655453603251,-0.035457099593202465,0.63133790911232834,0.28342026877446169,1.0671344972067633,0.23940385375339696,0.062108756016154246,-1.0818560176251371,0.30359083594851188,-1.2626135209551073,-1.204264422896405,-1.1959892072964269,1.5576631275657826,-0.91083498027146159,-1.2134640153193939,-0.83756850187349197,0.15815272832690699,0.48702253147102115,-0.76769372220556387,0.40121718393637285,-0.79471361701157439,0.63568980512013884,-0.00721814391959815,-1.3243686776793575,0.10703458868565958,1.5490488860950229,-0.15808415825909977,-0.076902990898282522,0.37242023373865601,0.49237951589406809,1.7302526183051083,-1.0383689069293993,-0.58748292550676351,0.69245160652814008,0.79113754996522445,-1.7926978473389885,0.26932720009502858,1.6940393060600727,2.2758218800534538,0.60958515610892006,-0.56541281102859753,-1.1042148990658105,0.13392225234759889,0.76306263072987734
-0.47368766244062127,1.0722077605256461,0.79123594001469599,-0.69134002610657519,0.048163657461545391,0.14570326705571454,2.6304384040907292,0.90071252396140422,-1.2980938359912024,-0.61639200164181374,-0.80904091162836966,-0.35796808099867117,1.5005863031776578,-0.92667830436776577,-0.66346808128767965,1.7102117374068826,-0.34135190207308286,-0.99419991926903106,-0.48148654211002018,-2.4835446048497682,0.0096883797330327773,-2.9013434368112065,1.4577333340351486,-1.2991233220601692,0.32766690792790032,1.862778597015186,-1.2247701889017495,-1.1835990184711476,-0.22509811005829392,-2.6856587311794526,0.98778612872163996,-1.4073661066681435,-1.053573666637172,0.66087337574744354,0.32644482104948336,1.1628134227540352,0.33224175506717518,1.0073853006426712,0.68416312454365114,-0.63561287069712524,0.68340957083681431,0.68423072109328376,-1.7057306703457018,0.013154820410749489,1.9951984731423349,-1.5746375382175626,-0.089914893188917391,-0.61426415164952952,-0.96641278442201695,0.74793871277468482,2.5677858324434837,-2.3149761981614714,0.38558887036149769,0.85209601775455057,-0.6998733876458717,-0.61731381366132632,-0.085884536851860302,-0.097572737386249414,0.96304452047235056,-0.85328172465039664,-2.7077311087675273,-1.4701042147077727,-1.6711051696938934,-1.5941254710147834,2.0658166111590837,-0.74920831603799798,0.048191197852744949,-0.58158894688858342,-1.0777595098499988,-0.69614674048456171,-0.061998100653491622,1.0473772394054355,-0.71439579247293206,-0.060389614006971605,-0.6038439008770573,-0.96492805963454964,-1.2942159187948179,0.89666389868865037,0.54438085142489923,0.082680509618885081,0.5424547106465335,-0.98220887006542024,0.73840372146041755,1.2414828051658282,-0.26104520260783259,-1.4616933545103068,-1.1013308754392808,0.79277124852164982,-0.43338340276706677,-0.95072333447641888,-1.6169258906816073,-0.37079235943278455,-1.2385398410343902,-1.0169192479831528,0.058031350016159652,-0.68118806112761376,-1.0645708600634187,-0.43054338082385402,-1.2381460251749057,-0.80428341732642716,0.98556561543603327,-0.76247751245997664,-0.27022629534414544,-0.29755639760471103,-0.35739268408722802,0.35358284573986898,-0.42458115747433556,-0.57288396515912965,-0.33587010672383638,-0.13656097001456302,0.56880702016889395,-1.9827136273297206,-0.32182836507714779,-0.36556604725581399,0.59570705832227144,1.2847724540607095,-1.142923681718738,0.68591383956531715,1.1537853099497504,-0.16757409384004729,2.1350616156636364,-0.18833041002898321,1.8798444434489616,1.3354415054980051,-0.37128339425540419,0.24103322937414381,-0.37144625461282871,0.15366753262294316,-0.62765584037193645,-0.75976704352809799,1.0453174984735849,1.3283623614762823,0.88944210428161086,-1.4877559318296703,0.2283794560712239,-0.14747097657391525,0.069944400999807657,-0.67041857809201755,1.655082084035927,0.44972888798875249,-0.61888718570056434,1.2903701472111353,-0.72640654213333722,-0.38338120356562477,0.80854717149243416,1.3881312614876868,-1.1304106374676921,0.53417855869138109,0.099756431537026014,-0.37523423539655981,0.060004660802384445,1.8416804891704703,1.3625377489049371,-0.059953649683501663,0.1281212116529328,-0.70136431708873892,0.072663650252876966,-1.197794075715586,-0.73424991645679605,0.55756737684298552,0.081474027498031593,1.4385211566847216,0.54129399735352746,-0.97835427124611873,0.50763047615755819,0.018460609929110919,-0.75357608932141373,-1.0190663249636973,-1.1348381228951956,1.1064996604026309,2.7293692654029691,0.090470730275038158,0.38803969734020494,0.00048869162977514,-1.1389034340870037,-0.89696398291782842,1.6151194815143182,0.59737733422602624,0.95487087377963553,0.12750751559587306,0.35767116940137655,0.30912524173724548,-0.0057557321404588619,-1.2582229175811293,-0.53979159119770448,-0.51819455869498909,-0.31936288935870916,-0.68162636696711865,1.7948464644455973,-0.30766133267479384,1.08402877282105,-1.8655604292917141,-0.28671309849920901,0.64418735247746461,0.80448987981194764,0.62150935249300132,-0.56000291260972501,-0.28263097451198843,1.6856454636362375,0.38880005470360834,1.319733033470859,0.71994914919869557,1.6478994128808355,-0.026049905232209902,0.33369751441986645,-0.66003117143606505,1.7991812668140423,0.32805652553708675,-0.18164171757293543,1.2566117575365492,0.070259416734656605,-0.46672781432574012,0.12122454762517708,0.0042340060440277357,-1.797470522228759,0.34609211701111625,0.12926223782683929,-1.0614977861214498,2.4251748474066854,-0.34046196222278258,-0.82251176001569959,1.3666643509094274,0.24415601946838764,0.89536691489252862,-0.68433034718712382,0.81271225144255532,-0.29146411272368555,0.88664932423973153,0.782733289947943,0.46420507139220002,0.91850877199540193,-0.00039483603112239017,1.5354908710914805,0.60962677250307207,0.12668946681637927,0.24402286143998647,-0.95490290355846241,-1.0632137652064835,0.2075992861677565,-0.4909902674350185,0.852843100425833,-0.75973229710944967,-0.82643363303678929,-0.32161203531145388,2.1410583017472242,2.4950356661499686,-0.085257566856580647,0.45975847031672029,-0.0039572599409894976,0.50700158124717487,-0.46830355242540345,0.05652704539397712,-0.69348554002957286,-1.3425151420439971,-0.58066217913044216,-0.2181513679287802,-0.3992789935865439,-0.52334063533819608,-0.65057750609817788,-1.1490227411861729,-0.60129279747823283,-0.35920240707692191,-0.072976348597233898,0.97717198543948836,0.26493176045119493,0.44957309825690439,1.2390123337601022,-1.7860199670642287,0.27767828938381367,-0.69801144806962512,0.21043121627174308,0.79669161987321846,0.8453769973078803,1.0622053736984147,0.074622616547238022,-1.8177482704690879,1.4712850340225183,0.2132086521738468,-0.32586224066660036,-0.70632929644099074,-0.11311323804592932,-0.50423097011951812,1.0313553478176369,0.42937311276762635,0.87141741119309002,0.56279709033403669,1.3830614811658897,1.9685748836452317,-0.001343522837040916,0.54845213182564168,-0.6353261118532687,1.70688370177649,-2.1240251820765197,1.560924310246891,2.1340994236922377,1.9584950295554988,0.4636362557705403,-0.44619160957724169,0.068626118837475061,-0.40128588463895309,1.3588668221213103,-0.98619025080131528,-0.10667299629769994,-0.41067002262807351,-1.1997782617975745,0.84261059534469307,-0.065455926136492149,-0.80058647377375514,0.27596423382526969,1.6533830284233395,1.1341440047396223,2.6546231741592612,1.4387713721733415,-1.4114790312105481,-0.83895712923647359,1.4829814525058205,-0.16532188963624647,0.93749874778400755,1.2682354590214464,-1.1250257158803725,0.24861862662100853,1.885618937354141,0.48569101742932247,-1.0201849419022149,-2.2324991647079684,-0.25571106614774525,-0.88747823292075256,1.7105982950176344,0.32894333294174005,-0.6904368334529174,3.7186417360620059,-1.1970464007827684,-0.56970733875795387,0.3455179999460154,0.49567881832740229,0.72835627124557278,-0.65317834535847641,0.0080254447066458144,0.33285570030733469,-0.12838961967667356,-0.44352287633965631,-1.898350369379592,-0.98899706147876454,-0.7419183059622626,-1.817576195715235,-1.5628253965404875,-0.47123649074438384,1.8604296076084395,0.42819745432774459,-0.45123390546729025,-0.061005224587675003,-1.4770268286527672,-0.33173399158001732,-0.75940061720315344,0.18952658824806543,0.021217367125488124,-0.56967300739576954,-0.45874783686133602,-0.011704084266810201,0.48633583746773346,-0.42521945565391034,0.55003327939159963,-1.7079740642738608,0.34641012043104713,-0.2293229331254284,1.1467043793660661,1.9329245973450406,0.073554476373256461,1.2333228854662768,-0.94949763461958725,-1.7146296957934455,-0.22944100676474952,-0.77654122426744132,3.318766097964331,-0.4307582526894978,-0.067973273215830896,1.5443611168199838,-0.29967388892656593,1.5654953013328947,0.48639452369724689,0.0067314059279350242,-0.92885656541391426,0.084267739185023921,-3.1880834315492095,-1.0943312080232752,-1.0224805039683469,-1.3870750585401221,-0.60668067066448295,-0.48231022376369997,1.5430215078407457,-1.7114636202679823,0.24613436736444033,1.1174472724739324,2.2087422197190278,-1.2000374717455722,0.38271622511921671,2.0166009673566165,-0.29102469936095093,0.99181164436929115,1.1183674413585125,1.7406700451240389,-0.30006735025375236,-0.073210238222073398,0.31508004742436796,-1.6531143689694288,-1.3094654306967706,-0.19196306377728112,-0.080205198550826112,0.0056030057085879907,0.4134937505966968,-0.099848743775813945,0.48257033128571636,-0.9888251568130465,-0.81560152134958586,-0.18436036819316443,-0.61110687985316381,-1.6951480674021207,1.7527061001061888,1.0673334760196718,0.82098861944648838,-0.46850279414328128,1.1092130051198594,0.26086873930754229,0.37839689626263162,-0.51562063262503799,0.16597225560321743,0.51557486728417645,0.43273456496362217,-2.447899469787489,0.5352938771301925,0.5875283893490405,-0.15679616755533321,-0.67430597037454976,0.17011565539085238,0.67889996084913851,0.58272312258615522,0.53290062822542339,-0.72931253226855286,-1.8230579943005638,-1.7010098273158878,0.19006984817317446,-0.19008486618632045,1.2820099639957505,0.30154567154329703,-1.6591613419423599,-1.5908299661336471,-0.70898487184198777,0.25406334282205495,0.47896727932493383,0.37047138062189311,1.9776940238852767,-0.31576413534828163,-0.9510405191316923,0.73241666719096321,-1.0771226717628144,1.4000498188289028,0.091148157150919382,0.20231493763972477,0.8910795911319036,2.5239915947304876,0.58874482301730979,0.65729095937907778,-0.90393453629340526,0.81580785558498237,-1.0475982574568414,-0.80325434824856012,-0.079075647027927132,-0.27545350906557947,-0.43230610042230938,1.0465331318507329,0.85362731459737218,0.90306593078315611,1.5459901233055513,0.0016475175913236602,0.49341527947985009,0.029043771698876054,-0.95603926833274311,-0.60153679679456795,-0.54996743423381123,0.50624671891016282,1.0943453637262215,0.40142651175452676,0.98907796981518337,-1.7060977526902561,-0.63135665956340536,-1.1342679264874087,1.2900419452997161,-0.99683149947434158,-0.82111252806032287,-1.0526339532272595,0.24998456439434585,0.57647551382507523,0.76368045445914079,0.22992311034369353,1.0341657343813373,-0.8943211122844108,1.7120334719377082,1.38972696388393,0.27859338760610636,1.5581017378160906
-0.36408214556415752,-0.08480536532023665,0.048529235450141886,-1.5877951380904258,-1.6332462858043011,-0.54708897629586306,-1.6370598262365401,-0.082430236262373183,-0.91729341792150654,-0.39211323682057742,0.8739183509943812,1.2438976270809432,-1.0526545471136151,-0.056098220741989502,-0.80730600131826269,0.33310216715846602,-0.87440989950479242,0.7397755810784491,-0.14975796168837108,-0.59480488593718228,1.2947285721805932,0.99403047427282876,-0.58547197267864715,-0.64088470743114989,-1.5600105873678247,0.92317959733895405,0.43844288722249514,-1.3812073922831265,0.46956663745293165,1.5878623098566709,-0.33424936732564636,-0.90245422710733481,0.60650923544372681,1.2225795062349378,-0.61045790124698873,-0.0028740623605154674,1.6030863991732884,-0.97201300540860724,0.6705257089905089,-0.65015230003294799,-0.58557115619271283,0.6803616471436772,0.34042819217264209,1.4721603589177801,-0.65800871177144205,0.083239885689072979,0.68250020777364273,-0.82952679414659569,-0.27567789979290097,-0.76006388757337273,-0.089814725803074202,0.20144841188902557,0.18990897786483574,0.23465458806336592,-1.9989406157910976,1.5587523030535682,-1.535542600563073,0.56170596416390206,1.4834753068579807,-0.24637142379440144,-0.091856849245833233,0.97924785948506599,0.83111422628497689,-1.1470381408390553,-1.2187203635267712,-0.19248914812423312,-1.1093860127196311,2.1745992783904682,-0.11786259594498406,-0.68904680973206656,-0.92064604849028275,-0.22394178045625954,-0.59825715180522188,-1.2282654077840804,1.3119999076992739,-1.0299137995802272,0.43566774681717224,0.12612864965309836,0.72676850562901252,-1.7469645505948244,0.020165542549115765,0.08640446212543848,0.79513358045189542,0.44030509253911843,1.9798072534813889,-0.62916008083853292,0.99928692360017601,-1.2651565655371333,0.93007099555803796,-0.13323755653949787,0.13761020477794444,1.133872552630975,-0.85231002268762968,1.4574099256981174,0.68847356989537367,1.5774914746405548,-0.30536709939269258,0.58833336632394029,2.0957803733408973,0.87470854024676281,1.1152450888424397,-0.82595291709297469,0.70398079994443286,-0.92219903482128562,0.2586967679213929,-2.2590256211540827,-0.07116633445307595,0.25511232458382882,0.58346287000625918,-1.3991737725611377,-1.0384872894461932,1.4595477852420424,-0.44379106368619253,0.60077752871264289,0.91415777706996526,1.8597307336615541,0.0092661837392386936,0.30548572885311814,-0.0047620612349346366,-1.8710924081016802,-0.35194848323707428,1.3306913411642511,0.21766169656072784,-1.8155039617132869,-0.85070505590461387,0.36905140532077446,-0.19930170827314486,-1.0080416412989706,-0.18583936812833521,0.29345272955690449,1.5946798642198705,0.54764614835373049,0.13617141623414147,1.5534360808401697,0.83372667168569747,-0.68744922194928748,0.11325314475243545,-0.57255403214686451,-0.39729144858398241,0.3641504698326602,-1.13572766612132,-1.9307544182385221,0.80077712650060529,-0.24596743041401228,-0.39672684495121568,-0.57168695881112552,-2.6864934684485746,0.96506689009554492,-1.172316345626681,-0.24573694422382117,1.3387456164467839,0.69455359104547609,0.15720161176890515,-1.2157624807118148,0.11625782589176194,0.62127703548934099,-1.432906665068598,-0.55401880297877859,-1.5094292729923839,-1.4961249862907762,0.74406816165492429,-1.6873469820772391,1.4661587382554844,0.15348841699572932,-1.0939954204990281,-0.95926344262331986,0.40410570303728682,1.0884946417838817,0.91893149765077897,2.1066117659152885,-0.59191619315016453,-0.70406047036959141,-3.6296963247560563,-0.65129993193864866,-0.34875889569485752,1.3942915734725914,-2.5358237184406001,-0.38207683322744368,-0.56535964546043294,1.8572220417171574,0.17451303448704741,0.17959138374522593,-0.40628553121143751,0.22519869790595731,-1.1904164423891046,1.0091726646984331,1.0501401752567832,-1.6503374987364636,0.63122501035880529,-1.988184283802289,-0.5303676098129273,-0.080897091038567945,0.66767928468341498,0.19205022472812777,0.12926384017789549,0.48695763438999956,0.62809953660063966,1.0056831173759495,-0.68274968861246088,0.5699480523925069,-0.44914120321894829,-1.1002729783665328,2.1928966872591888,0.89508517366693363,-0.22457749818888012,-1.084855080377642,3.1735410654842817,1.1759546810922941,-1.634233393755949,-1.9882017277499502,1.141210938385953,0.34150992129141994,-0.8819580064326995,-0.23903560216775077,-0.95114998655019989,-1.058381138789509,-0.57316390152580998,0.018327786830390613,0.53773123114722865,2.2179125344310466,-2.3278465673611772,0.10299877405609116,-0.045126340720621549,-1.4349334609102937,-1.6876219604509384,0.54097066500122426,-0.7228195381629966,1.1340598501671919,0.40203670837013994,-0.00036015420812495673,0.073589037082819109,-0.64141529722054458,0.74498618811072648,-0.74311817659192325,-0.88883992395925671,0.17880912204777,-0.1398343696252887,-0.21993081634350964,0.52559883188696432,-0.34189142675590561,-1.1813198587191647,0.32036632551868072,0.2170876094739253,1.6930683254780876,0.55508096190410972,-0.79531909312562032,-0.78154471925765812,-1.3708079670987512,-0.23634787758760603,0.59576611216853537,-0.35832183531119383,0.95417931380854526,-0.72744994763867132,-0.28605973985026784,-0.74932607736227697,0.66908401645117499,-0.5021787701057816,-0.43151705822848779,-0.28502679114414553,-1.3152895126828505,1.5553584760324057,0.25097992907234296,0.18680902765133581,1.4798157097496414,-0.23486239496810779,0.56221069257748046,-0.22600708534371292,2.1769838238887851,1.0600497937146045,0.099467595338446735,0.57358931946655978,-0.25926154318053835,-0.20429451710562777,0.26347652732738225,1.6777594777553029,0.69553572134059327,-1.0872067664232163,-0.22390904534829087,-0.20865425529008691,-1.4781564760962151,-0.56523204047605247,0.16005271893298592,-0.29685440813579961,-1.4758663113184107,-0.83042874700423619,1.2986437340721524,0.080273312775365341,-0.79684061295669339,0.030555140123630042,-2.1261984365830222,0.75563454710529754,-0.25864417864282291,-0.74809092358539409,-0.50857258800430871,1.4494070385039484,1.5117634954728902,1.2999124707364873,-0.98882954808338941,-2.9376851697598143,0.095881322770822675,0.99677018116860205,-0.063142415117618797,-0.63073263050457917,2.7596760599856061,0.38061623762366453,-1.6093197708007008,-1.2766692232529169,-0.11875754716629743,0.8852800285199337,-1.6741515395810207,-1.2067288702453596,-1.1473104363992428,-1.0219472396277163,0.3477448987655205,-0.36157103205341939,-0.60097049664234936,0.42471452295870959,-0.053120323942121461,-0.57641638518726857,-0.59900170019010901,-0.69829842526573771,-1.3455276741815689,0.17543598549625902,-0.77508584841200179,0.59145298135367785,0.45521358887908464,-0.55937122545608398,1.647175190217955,1.780889210443529,0.44638935270466057,1.6420280829259561,-0.35779381604047644,0.0088821932713405473,0.12466884922358251,0.59217634485706916,0.25511745467727442,0.3356579801134405,-1.2949597699564901,-0.2854138001187792,1.450555886999388,0.41665121844512976,-0.27222830403799037,-0.16571549544176611,-1.4391283698190596,1.3531251289045063,-0.21276423065965555,-1.6753435234052936,0.077824323867384748,0.91428435036198519,0.18048814050396828,0.2412604371840941,0.30477135463610794,-0.45559773712162427,0.98713147284951031,0.7717910895799126,1.140939694363013,-0.1659776858395908,0.91454646694576625,1.9674591026058705,-0.024945447872596428,-0.44979011338287617,-1.2152691452645819,2.5085878442299823,-0.37748401382322433,1.1765777441102059,-0.010479087733414681,2.0379916973313765,-1.8717970946846472,-0.30827960007584632,-1.3453373352220073,-1.1103800982403758,0.77237943109144913,1.2223274031370077,0.025827431302504106,0.61848939342288789,-2.1729070095997209,0.044421635166526204,1.0667963156359075,0.54231036925667009,-1.5538205972088615,-0.079602843799388853,0.014042558945900044,0.70662034970757359,0.54713741164233387,0.30459622173400691,-1.415621506898483,0.35455024370390564,-0.94803829549730534,0.050577069359713483,0.34118505056619092,-0.5630997746521117,-1.5456577355710095,-1.1695382334155087,0.51414381288547273,0.048633948448741464,-0.1573508912062381,-0.47720394301880975,0.21197895963518967,-0.29461438616056795,-2.8987932066311526,-1.6274161178055151,-1.34085727593349,-1.1183749376641567,1.766919248483233,0.26540886457903878,-1.019532973666212,0.90129176608358541,1.1233996735040019,-0.091696604752269123,0.77446367477765765,0.56289252157145575,0.83424162296680504,-0.51482502653094808,-0.9446973405055229,-1.695300595796049,1.0001655703011656,0.70379532917734089,0.40710232196795432,2.4067164412684732,1.2671531611021314,0.94138193490957311,-0.42323914825365389,-0.71442651191852002,-0.8293570327383083,0.16512311718013226,0.76655442193315404,-0.20543817812652285,2.2379031570275707,-1.0261808873716298,-0.23828189919331988,0.22773753579695763,-2.0093315682358104,-0.81207040764063931,0.76775476060473358,0.26476250340208074,1.1508756707019547,0.42701112296925842,1.3333265484247316,-0.089463072352548689,-2.2402111890548739,-1.2645553510928222,-0.39413806656272399,1.2376575840951376,-1.7159276644901473,0.21123596162177052,1.2722740176230491,0.70635099887049269,0.9112561804075332,0.80321540842621286,0.14548911458118741,-0.96029768302845886,0.11866945805085917,-1.43914885080457,-1.6986119598476368,1.0831394859514116,0.36344706789892789,0.98521131833897102,-0.38009962255314111,0.24589841500865234,0.63327833886540874,0.85949529594866059,-0.57635797992325866,-1.579066244567942,-1.0615703739494333,-0.21302407692727715,0.65014073729937938,1.2996517151712461,0.4314254895202303,0.61775866662361845,0.031340563528098692,-0.37737293099525976,1.7718053139355228,-0.31875959807192467,2.1582585770338585,-0.84397857189381176,0.63401717715328998,-1.9001865051492821,-1.1020620928855955,-1.056706268021482,-2.0227702763205562,-1.6341307330874879,1.3405245900926204,-1.4310151782154321,-0.63366659424403105,0.84881175988042945,-1.2703309780274397,-1.295101200527252,0.73198337965886151,-1.1542686020952337,-1.2392748622147396,-0.66026218332567865,-2.0384540303639413,-4.4185736848118662,-0.48253080889058231,1.6680320430086732,-0.60886603322466515,0.36799909798839203,0.79374553906433665,0.74418093867228841,-1.2809467582540257
-0.3195694907075326,2.6084058612121632,-0.58465819846785616,-0.29841288899533547,0.75687682860916938,0.74042680130090688,0.54283885475526628,2.7005332152169279,1.1845431573024818,-0.29650563772293614,0.44817633589143624,-0.27357712656889349,0.226191820042901,-1.6586588870840853,-0.23318613131318644,-1.8509455568231381,-1.0844244586953489,0.053579416142311612,-1.7875998659607155,0.14137025590845501,0.26818561778259781,-1.5409555350880579,1.4096677044989727,0.58885505729342369,-0.37409551329038748,0.52722631095961237,1.3529920033510918,0.50886813986653812,0.16192245948634984,-1.9026683663026545,-0.11687005059292223,0.2532390220701245,-1.2967221009390941,0.86045045380771767,0.323994150290282,-1.9207623476582749,1.2712608930810791,-1.8006429774033104,-0.079896100456825686,0.62117613711162045,0.65506440129670063,1.6672206707682959,-1.0797484709703955,0.032698582518239878,-0.12770194936038715,0.044512819554590626,0.80414127976838634,0.92095646017817467,-0.66124869150999321,-0.51633367608521996,1.6253588046548082,-0.22440494836266842,-0.57780934451475641,0.54026797080033995,2.1523622966194247,0.7433086572715929,0.9674146565551347,0.045305969969172993,0.70027467976202873,0.97312369989776315,-0.091098187393758037,-1.1994132788308225,-1.5595374908592576,-1.0798873108895073,0.18261569479547601,0.6242131319765325,0.26366328619784096,0.08414491768527764,0.229779775250992,0.099101796369456097,0.47604795076501533,-1.4820640835154295,-0.19041350482940694,-0.78265237788934405,-0.73157503018887138,-0.38430676842412542,-1.5352705867499994,-1.7942160912492087,-0.11144292256035522,0.36888348477945737,-1.4600062787562402,0.33783606792917348,0.99663494189157797,-1.8518857290854016,-0.72017099943857976,0.48954094437270845,2.201501995002769,-1.4362621308566508,0.092879581864466015,-0.082299634804513813,0.16790474105598541,0.58741064101235818,0.21272378207431472,0.3596495866540364,-0.73261680543504581,0.63329654290355053,-0.48208328366382946,1.9923588595449144,0.7220853401138948,-1.266149613887954,0.20692980964482657,-2.0109977241920989,-0.2499886242068749,-1.933000740906835,1.0880050099497618,-1.0197690195481774,0.016220372844612696,-0.92133129651959711,-0.54071465778886463,-1.3065093324254005,-0.0083166268736167247,0.95377204310323316,-0.22740413356985978,-1.8661746622965585,-1.8222894404559331,-0.17062904838293427,1.064199351447475,-0.84900798046389792,0.77188570352441499,-0.23392154414893812,-3.112386918642235,-0.43788634802582443,0.39658883112181381,-0.32003508820603821,-0.31320708302380151,-0.44087500633618915,-1.8173763018451787,-0.22597479634520351,0.47155945556662249,-0.42986659491884588,0.92445922174882755,-0.65812941888423848,0.43175442404099884,0.20561630826470192,-0.29792800345416287,1.2627595847027246,1.1694188079794459,0.02005851587102463,-1.1157758453555005,-0.88864224160205529,-0.52211383990646598,0.406346967340252,-1.2529716116645671,-0.0064604503853006199,0.14868976504398157,2.2741132606932704,0.10744113539328214,3.2415583092550047,-2.7511581644416672,-0.47454495870548841,1.542264290887867,-0.72123597454618005,-2.4295938473014389,-0.4851348802260132,-0.7857299075698051,0.23667493390794808,-1.6564764928564943,0.65488285530389989,-1.4016436520164151,2.8944747697600697,0.33938428720750863,0.81925475743713416,1.0948169434007411,-0.082048383146761231,0.24027986625957565,0.62119328745138647,1.4626976856284941,-0.43561763396397074,1.3844802031097061,-1.2081501455498742,-0.15061615634129366,-0.70645344487616946,-1.2043191376808822,-0.54786349702254666,-0.25682698170836349,0.26695775930923948,0.38540738846844025,0.76694500998337289,2.3533798834336896,-0.26822415601967198,-0.32874511498248821,0.368826116651226,0.093298898604770988,2.262216784916562,-0.34652306358776652,0.57170595709174321,0.18841862364685333,0.25845945617177174,-0.66374422642725528,1.6465037925768777,-1.3194342264530361,2.2794085978378438,-0.12995575664644352,-1.0123692579718455,-0.48794648714600392,-0.11952045264957958,-0.83346052837519913,0.27511724997787368,0.012088070888311578,0.50456637514349045,0.55062676350781892,-1.0655948959290353,-1.032017231904012,-0.43149240668386052,0.22983625321267739,0.21776049633874642,-1.3922720723718913,0.21917996471837936,-0.95413549873325654,-0.62743258729377871,-0.31176069823675878,-0.87822374827145788,0.27773396813645473,-0.2418990542886687,-0.56326827842709137,0.94440765526084236,0.46541978771083237,-1.1521864465488081,-0.33815692738269243,-1.9358500407984998,-0.60856538018036088,0.36892562165570064,-0.20102643590699076,0.17693427793357422,-0.99447416161472368,0.31538722117604906,1.8805625601215048,-0.73753806616518669,-0.51177715095124821,0.70651725337342008,-0.18992011172192488,0.099236921718163187,-0.46812883292931523,1.1248310620221897,0.2695924259139646,1.5570997138070628,-2.5605168345261018,-0.41726161693090791,0.68558473949269827,-0.62260902247703198,0.071448997095524699,1.2599734481795564,0.98268996548806287,-0.050142737457406161,0.15288891462701851,0.67177897285628152,-0.71286127086632822,1.0342027149965018,-0.35390639752469694,0.47281713141595344,-1.247811809507928,-0.27803561827971773,0.32089512200440012,0.52378757708292722,-0.85517675730930753,-0.079716344454554958,-0.10138745467602645,-1.071303470859319,0.28748101731573766,-0.83775255668881454,-1.5004481606831204,1.9462585559439092,-1.5036303193188774,0.013659034859124872,-0.55949749945894578,0.90185860261691086,-1.143664830458555,1.7961731391932587,-0.68426162017705394,-0.47594442006443932,-0.87328761650219566,0.94610381178045155,-0.69348401089227607,0.69004903800873241,0.86409163752942875,1.0628365777171072,-0.005710486192098887,-1.0276463011610386,1.9843334745414469,-1.1268301506606708,-0.26480987363058256,0.31839212292879693,-0.037844492097041139,-0.74315305674727794,-0.31073486520437721,1.0659967524983394,-1.6076988727963759,-0.080839154966434346,0.75843167423124613,0.74610010039781738,1.1799648788589356,1.0021329798988312,-1.3381378247929754,0.73347214966608398,0.026185534884429717,0.53745724275698015,-0.52545968704848811,0.32418358809348563,0.5585260352674507,0.10876919292304839,-0.90068829906416381,1.0350376135342607,0.62437929588697949,-0.14768625223998061,-1.4948458156259345,-0.56458835181960476,-1.6161815357064242,-0.55255680574585109,-0.70439331246382264,0.45080076950073639,0.25731071948092454,-0.33664237335853409,0.17480935989027394,-1.6903442183572808,0.0068565041282370176,-0.37914891494644126,1.2220404667838058,-0.43357296771559689,0.43181858858263944,0.05192368854029783,2.3295415356256912,-0.071514092656027151,0.02513229471728114,1.0742772515358812,-0.38166441040357024,1.1806954010226782,0.18315394114996161,-0.35464564700808493,1.7651002433855489,0.66972163474216451,0.95960454516950311,2.2775290420339727,0.65427917660752921,1.0062555247241953,-0.32256539234470799,-1.5933655139329044,-0.15968905403482678,-0.18205912901497015,1.0238225913511354,0.33682007259951058,-2.826139251407314,0.91792124275424258,0.80412668333733239,0.31129076727422655,-1.5303490102585202,-0.4669641191845868,0.91145009224242257,-0.50670771477704057,-0.72799191805394992,0.9329444624286396,0.73314954702621238,-0.50994960472590378,-1.2629604915081931,0.32233705621998809,-0.73352775475894494,-2.0402064249985039,0.7625115170485347,-0.53217925200225524,0.88594034218806861,1.0431893789629541,0.71240191560979316,0.41010836238765724,-0.48729544520164358,0.24310731237897623,0.6450036009753175,-0.23373182584822433,1.2390878867994379,-1.2468951591322517,-0.022921340216829157,-1.1970455385865035,2.1097963759198715,-0.018430537015586335,0.1394692145228415,-0.009876536195386974,1.3272594694596522,-1.2154237322918813,-0.50687719493825734,-0.32131193058752006,0.90544009947347026,1.4611166402557969,-1.3466121525681072,-0.6801913087579412,-0.4266978045275584,-1.9397149368937703,-1.3420766736286627,-0.13837820783956148,-0.57592672919237875,-0.81664877295784111,-1.0568756792764593,1.830121725601497,-0.46713423217668104,1.9539932010556684,-0.90579052048897146,-0.22013272047192001,-1.1970467266985436,0.38836225201466634,-1.8603213809108354,0.43715034830455995,0.045533581839510007,0.89394105743111307,-1.2363399696315129,0.99570482373959246,1.3099852837201775,1.2880542462290623,-0.087779858722923071,-1.5420729812141623,1.4234824437804801,0.24562572071131358,2.1048519100303831,-0.030485918799728767,-0.84075095952789636,1.0765914534290366,-0.021256391795230839,-0.30318608170970673,-0.94628270311147689,-1.7919210263462007,0.55884883473778157,-0.11990932546312637,-0.79250721556019843,1.0013335487039208,0.1108753244257345,-0.16217323257449234,-0.61045864317295551,1.8560355959520098,0.16152770618483983,0.085381182214606957,-2.01832182242791,1.7218059055694186,-1.8831021704796618,0.63620835360379535,-0.29353846668473477,-1.1040680064434494,-0.66027964015099017,-0.97670657186463905,-0.447933806997798,-0.49270151967629899,-0.67137931697233399,-0.73170809506193824,-1.9164467926308344,0.76834552029926662,-1.3066885481872801,-1.1406956434720985,-1.7121423061471794,0.089810311980520766,0.77231525587518624,1.0103617366504078,-1.086513298511635,0.61726383218762992,-0.30046450405171465,1.3032077940982107,0.75529120651006409,0.52807348378810925,-0.20057095791762747,1.487776087859155,0.5018063898204056,1.3427761392802737,-1.2459583090648434,0.94401640148092203,-0.047309176514796387,-0.65506214870074775,-1.5427920926166363,-0.067026595436135275,1.5076796181883485,-0.25885498822961472,1.9749293215898975,-1.7694146790581473,-0.75970335236943509,-1.5249495495328054,0.96400536876105347,-0.019953369396890585,-0.98828675663823662,1.1444347168649909,-0.25456749357928282,-0.54490710360919448,1.2677035542801045,0.11289312886186716,-0.36325588848605816,-1.2037525769114634,-0.020854266692610472,-0.68065020073154159,-1.0466588022797374,0.64974420545291034,-0.4649030988901795,-1.2809099480117117,0.024609084489897497,0.25859021102003116,-0.95866419156354732,-0.3363907296581467,0.10123068484620319,0.53769245628658779,0.4285420052194337,-0.27925443154991669,0.11775398672428052,-0.80729671702369998,-0.11323741154055456,-0.32163012211538877,1.4652525438034751,0.15513115685963522,0.00045611722163729545,-0.69965753730844482
0.25003622384870527,-0.16250052473240689,0.3291828564348,0.62705590917825171,-0.89934979723670683,1.5513887651417229,1.7358532816411705,0.97583949992968622,-0.30005933158568143,0.35679557929181654,-0.023493472139927023,0.31255442681293799,-0.4558545402201411,-0.063284217657435859,-0.60776470297651541,1.3011544636544001,1.1220560825677945,-0.7559535625148005,0.050846519274711059,1.0536241752736708,-2.521438711928222,-0.33138602847732851,0.41238616017585417,-0.51414288603125147,-0.19430050739501006,2.284341311251842,-0.15597075974768199,1.2883588531443277,0.35565188086306071,-0.048139437714483535,-0.14425044623649275,0.0032981676301580137,-1.9321875991203923,0.52056128500731602,0.60110933585491833,0.24919711644515738,-1.0314369987025374,-0.54271050081684025,-1.5578946100799429,-1.6945229776032382,0.69829505942445191,0.79606012687119487,-0.0039285173553116866,0.71923654328130893,0.047612821640051893,-1.932962660599058,-0.55563709256365346,0.46219162131205432,-0.21296428917133239,0.48698502934027443,0.5504016449387602,0.93243821328394683,0.281573747760549,-0.37818142167463109,-1.4216859392320191,0.67653138329014562,-0.67651452265102463,-0.053203466076357488,-0.17942041381564278,-1.3536603722455116,-0.68756433722119348,1.5335291314957356,0.74449825910066647,-0.065685886666356802,1.4712078230736612,-0.64829932232350851,0.041963851613480457,0.60948803631577775,0.56604247502090532,-0.43376130551065473,-1.4461598624068339,1.8600564309763936,-0.36070066864170403,-0.2032537331306305,-0.71870801208034907,0.94388947198953621,1.0377677145548836,0.085904807344229311,0.28017176787315806,0.017862422046050593,-0.21099179363424669,2.1923636202188428,0.17729097641870928,-1.8446160474855429,1.4236633405634072,0.53599387848028579,0.5568646990144962,-1.4311028477957777,1.0532385516592031,-0.49603502873309352,1.447059133744494,0.35519188496535081,0.21895825860697748,2.0362845616740146,-0.088415367269968001,-0.5295027517826042,-0.54810801873961068,-1.4709718808985595,-1.2906086662075016,0.37682325347280976,-0.22774467084011296,-1.0105996321476964,-0.59113470267685198,0.82218060659476289,-0.71390472938749439,0.68176735426840074,0.26475642479860395,1.6594033989164545,-1.6643253745417288,2.4315631075049811,-1.448585392540064,0.22794316897523181,0.39994069280200256,0.95937373371176993,-0.68319435558143427,-0.8444439963044712,0.17148755002025656,0.87994986262088382,0.15908928854810778,-0.13810537096556366,0.1637617011034728,-0.81367610036610571,1.3331907161923036,0.18344421149568135,0.80396213888538393,0.71746648860621887,1.5550111543162366,0.37517231090176456,1.2688668817548208,1.2020930323377734,-0.080941871153190889,0.084041931447337806,0.39249262501739268,-0.73297173529093529,0.57485260909869162,-0.87509405303276122,-1.7198478360122935,1.9330621138527009,1.1496048313685119,0.91965105746454678,0.039027014591547865,0.34976086537744211,0.017546792314603092,-0.52476579371809196,0.34416129947321911,-1.9995501732919931,-1.7319797504614483,1.8418577652435326,1.7902635455266249,-1.2223228819190421,-2.1766531591302702,-2.0643218883187116,1.2025268571072356,0.15750293508489788,-0.16686703069119097,-0.56829326109426992,-0.73014027627522238,0.26739935196833198,-1.5352047481017028,-0.98007581358702622,-0.075741253757243096,0.70647395670025126,-0.054233957997940681,0.97458915403903124,-0.75641662422921119,-1.0655360626025219,1.3988963389853724,-0.84417508411002196,-0.17316411020753328,0.43668706832951804,-0.38180588985358449,1.4786108367857511,-0.4388227461177453,0.19726597273110918,-1.3883288222954833,0.78445088116976525,-1.2578702975074092,0.61756528250989129,-1.9774423688897755,0.25022716291379354,0.42087487110209632,0.38604180990261466,1.2482671074383462,-0.88038801425320312,2.3202251184238176,-0.88016079948927672,0.23298486407487357,1.1584441317935499,-0.31858159205924835,0.29776729796618578,-0.0091925564367612289,1.0488477718105786,0.11141132291109648,0.58505353707976793,-0.19104774812004272,-0.33478261232084155,0.58649844296914788,0.21072207486003494,0.17822995081662121,-1.9384631672274568,-0.79159361321823718,-1.566124368721741,0.65908945822823695,-0.81449136939026545,-0.5530008045213044,-0.1255927127244835,1.1127940725891099,0.18366428331746323,-1.0937055969666636,-1.5549636994529601,-0.74419939990517314,-1.0375215491647156,-0.4455058805148352,0.087061389786662377,0.17594463644567065,-1.2776020891940032,-0.11158582546380778,-0.71594447978609677,0.86274656673920136,-2.1697739954812061,-0.79039114415218936,-0.95902251201436495,-0.56634805983009395,-0.44668338683704145,1.2947582968509348,-0.53594155730009641,0.76463989984559266,-0.93198957951565109,0.30783039409810242,0.3173806323573557,0.73781463941499403,-0.12730740017466666,1.237141074676223,1.8514375295892516,0.23298923673839314,0.120612150495041,2.6983754769705057,0.78227953892846458,1.1898838975021835,0.8325000322917302,0.6805156602883069,0.07782569746342187,-0.76705914121650076,-1.0368285890738689,-1.5686403265052546,0.31915192320136354,-0.10564729189906935,-0.11110087202656212,0.49060574967555365,0.64577766248506574,-1.364740830372613,1.1265872617191626,-0.32625625994572643,1.1226133949521149,1.0628967899409614,0.33151944591058202,0.20468395584835869,-1.0138348156334591,-0.85451354612890418,-0.93298674400170045,-0.72071926162242095,1.2716646073754931,-0.070481961820035882,0.66856108526497493,-2.3317086465719319,0.92803684223875704,0.16712383342364051,-0.5509931508348217,0.39499780864477946,-0.38665694484155155,1.1617650580573875,0.19648329301675393,1.2711410385775537,-0.35179114270838507,-1.4409671209788584,0.47215573427738355,0.34649458272893169,0.83913912206614583,1.2775201718752598,-0.18763137677237285,0.72768476486490252,-0.88682148661626259,1.3860897506699095,0.45635682806988692,0.25882647513082624,-0.51089531631838137,0.049251486359098207,-1.3427122248329,0.36286562407117795,1.0773410212488495,-0.56021383499144872,1.8341263938466259,-2.5218867033647232,-0.34254140316784215,-0.46894693962358297,0.38826642090467994,0.49244316591140591,-0.41747837183187009,-0.46481698533785115,0.42332428709364472,0.17942261090214359,-0.81159275716482737,-0.14375351981774867,0.18574669341445632,-0.67967324952660824,-0.25201620434851402,-0.40607236404059494,-0.26428246268988131,-1.3063061424496885,-0.26264736721720044,0.84413358845903652,1.3595797886501777,-0.39848740868268906,0.14747378111319881,1.4776026880545947,0.019624908677020905,-0.36433341376188311,0.027839533872525246,-0.35339578389225706,-0.21418202246753945,0.59193509066925631,0.61229613605283562,-0.4767305557943009,1.3439857178208388,-1.3431242964488395,0.18643095456943798,1.4374621232746332,0.57348724358462699,-0.41411956587341536,-1.2693470709596693,0.61133258682455793,2.3767159387655954,0.30935486651477728,1.5424845782866456,-0.61567516453830851,-0.74029842170665938,0.44860788139185165,-0.53809451435348943,0.83759250151718267,0.40283562392748767,0.38228779407044244,-0.36076339490591425,0.047587607281774823,0.24169053655480613,-1.0661092451073573,0.0030401388889582438,-1.0178118878285645,0.65569100438317585,0.18137734864728561,-1.6652293474396163,-1.3996676476744214,1.5836109198694803,1.1003901297558358,-0.045811730869825089,0.049970748501496035,1.688139799043777,0.53077481974187113,-1.385651455223343,0.24720836023766074,0.32181549908337298,-0.050345106568330154,-0.56215845433828493,0.13040121406908084,0.20695056218823979,1.4441357379975326,0.23062495395701565,-0.36965233201946346,1.7509959259913463,-0.080500625898184436,-0.42152095591050465,0.56391425350591629,0.080008103628574759,1.4538876920187549,-0.27562499999105849,0.19339473823455852,0.3012214013497907,-0.94688950483056522,-2.4131420938343888,-0.12522508703284871,0.34988836003877211,0.74170754949299045,-0.080773778955869777,-0.099392616034845629,1.8746409655594867,-1.9838731491652908,-0.51431180293462575,0.93363416790350773,0.24641007200364695,1.1628064869243573,0.17302046913924934,1.7308728927756984,-0.81881150546393788,-0.55456317018094348,-0.30663642354270471,-1.1850302475411258,0.27081275678539052,0.39332844152760832,-0.61523200574454617,-1.3952677343911757,1.7375661111853276,0.16523684802435071,-0.86938246581127276,1.1554022778683268,1.7012772684934299,2.3561505317408584,1.4049300265754345,-1.7041424529708751,1.0030086460999506,-0.046057127707752832,-0.16831692011651553,-0.97866456799022827,0.41156532081925723,0.61358538205107238,-0.026295085165705639,0.82077858231583312,-0.31582573604562308,-1.0967114354722809,2.6519795130143358,-0.093895505795769163,-0.17502554828023875,-0.75757602892237341,-1.2413056376090603,0.37446606344952593,-0.29593897920776563,0.42649228448527471,0.35823113767464865,-0.52028121997014742,-0.5687423671956503,-0.31558733580601517,-0.32521663884119312,0.058786488524725067,-0.10839125869498605,2.3095647075623815,-0.16891250273229413,1.0228065378925808,-1.5559870881889024,0.30969841916723162,-0.062587646823962506,1.1746278714124998,0.38801721483199797,0.30918974932783716,3.388111426402987,-1.0691482736361579,1.3477131581635737,-0.61719472162183353,0.73050638747366392,0.80274065078527923,0.50817369293639081,-1.4880176279041919,-0.95744802658363137,-0.048077766134967226,0.04248277641569171,-1.133938025082537,0.86501024727126097,1.859567213622207,0.9685103895648226,0.38075398701580832,-0.3501213269896995,-0.06022895340415476,-0.63493241767202768,0.71639187576849395,-2.283252200670443,-0.091479517144440109,-1.1884382098134014,-1.3489285608488006,0.29832905116409908,0.53660628399753041,1.8014506251568734,0.77052341628605558,0.58117589403997116,0.57397302155438013,-0.61381342944810902,0.22486635563990748,0.88690165412014876,-0.98934202676551386,1.8325276256519809,0.87399418949278795,-0.035891153720946561,-0.65868593363005989,-0.51037621492382568,-1.2128178717639462,1.3788934242073878,1.499016721296988,-1.1313631765252257,-2.7229821927363358,-1.15227277379668,1.3297703541312755,0.038903915276492056,0.58645133460276611,-0.24736831170814466,1.1278433104171903,-0.2126708220439659,0.067257926249208691,1.478429326958747,1.687832774908834,0.4433827926034174,-1.4299135129685769,0.43983281580340905,0.3844117058957941,0.53359778764754018
