-0.70325400276037908,-0.1533305980667197,-1.0753167884621671,1.5775367262561031,1.4562976444182922,-0.20580247403500909,-1.3503474926112806,0.078758031379669413,-0.31502064143572706,-0.27749587554922905,0.24004451327956167,1.8093243338982901,2.139785858707659,0.082840025215326171,0.6987199655865447,0.65722796483405677,-1.13057791568382,0.28976647635678748,0.51249442798974476,-0.44653040775544589,-1.0334529453253789,0.96724766939510221,-1.081882597178752,-1.3157162462718812,-0.55046816113669739,-0.034912829400555533,1.9091663373940595,0.6065217425882623,-0.24354811587477446,-0.26782085534534128,0.035161041628051788,0.092081137590725268,-0.54549128182573436,0.73184600159380298,-0.3093363574387788,-0.26001088518650745,1.5047549541317178,-0.88331164104414828,1.6008514502911715,-0.71322847936797973,-0.68581987047848358,-0.66231559667948514,0.17645716249641016,0.23966732985849026,-1.4549830069909202,-0.26640020567465661,0.43259417549233453,-0.34381155347764397,0.22895866553296301,0.24480906262872437,0.033316679045531518,2.1752542915328594,1.8588955101485969,0.83613024867596586,0.47327374789062349,-1.2367645925950925,-0.57467258949784084,-0.90804829380924768,0.48146480512034778,-0.14086242072222485,-0.70237034641154961,-0.11855531856655888,-0.49536626681186241,-0.40747393243728741,-0.56013591773592741,0.0067627478262951343,1.6630625379495216,-1.1948136670802096,0.58529173014873448,1.8554040880127785,1.0686527255837366,-2.0566601132070441,0.49242904668884635,-0.70041332790548816,-0.85277878938159402,-0.18762743566339227,0.2388902743521033,-1.1602692988416969,0.071679914090571603,0.31657873558005295,1.2412332309416776,1.7547384656009026,0.34992880361030443,0.35336221842417803,-0.5035494402257048,-0.99484029040953359,0.2829098066875016,0.28056104495201195,1.0823146341044527,-0.19719002364583688,-0.71631022075570738,1.0421630837171516,-0.1371792706524593,0.7169627796414122,0.39680949109710895,-0.050791994271025459,1.7393027962240943,1.483137447512908,1.450078712478337,-0.15127443099934448,-0.26652410912924757,1.9176538042484061,-0.97371106179769529,0.68297940320702,1.4149606862882738,1.0090577831207717,-0.26687446751798899,-0.37055177005311357,0.15796284237996855,0.17872624291256017,0.1394135633092432,-0.55119799945234982,0.71681896220922803,-0.76122937890568176,0.26813248292251535,1.048984327158927,2.2605220180934804,-0.49850630240852245,-1.1193393386496178,-0.86966590568555124,-0.92554788925840403,1.6938299639607948,0.12059834724581767,0.23382409113211092,-0.13023510713790989,-0.057007892805670791,0.45198271366211112,-0.093941346949001386,1.27982354284665,-0.55187758046246282,0.10882758641661991,-0.87816629515740763,-1.6619862321875489,-2.8237443320131206,0.56813757987446134,-0.20161608483755858,-0.72622661647755749,-0.79399540369229316,0.66317459295143089,-0.039806358188965475,0.74818609993461127,0.31335154098657653,0.25990540595990508,0.6919447692810714,0.44465775644646721,-0.30231433408401043,-1.6430913528586073,0.742450268471879,-0.074798491219311855,-0.26669808060110339,0.96243897531096345,-0.71643156598119018,-0.3967663251884867,0.68678788621518538,-1.0151808892837266,0.31998229415889096,1.2391036468116019,-0.66305943133785195,0.02794733609085568,0.80207966577840473,0.21095168767755737,0.71008542064389046,2.2571260548701213,0.20456241129064179,0.41673324418734076,0.60127736009725563,0.79838125048297426,1.0621158582697878,1.7573562419935054,0.11876383796189705,-1.1671202791707147,0.56613012412314534,0.099869634452467632,-0.30204105716235513,-1.5377039775878951,1.2216207324125439,-0.19154273042331577,0.75830824774796979,0.78106976164027297,0.48102757825392428,-0.5440813349300937,0.70121774954995963,0.47969381641545539,0.48685990817968683,1.4684611571769624,1.7120089137671564,0.92087830722354491,-0.387196982869837,-0.7660568521634441,-0.96804201397752998,0.48290426375041245,-0.71487416007146776,-1.2470442924174299,1.7681529883234997,-1.0929698404732673,1.1017853035939134,-0.38787748057409555,-1.0959841845695146,-0.6842428145109134,-0.12066667372850756,-0.27097953228507071,-1.6075967741467128,-1.7724978868787824,-1.0130626408588213,-1.0751481765701534,1.4746578971535911,-0.69537803897342698,1.3661136117435246,-0.74359504543652455,0.34939643459999398,-0.61484427192302138,1.3693899892157615,0.7771153813820515,-0.674915448463,-0.5406878465303997,2.0257387524277348,-0.19729207465626303,0.70265210551776425,0.43781258667100803,-0.19615059646405406,0.3649691320950787,1.1195974529591621,-0.29833120717278389,-0.86399465298921285,0.38103039348568962,1.3373008788057283,-0.23897669558885457,0.12628955373267553,0.66058248049141022,0.16526928553470069,-0.20001637571872508,1.9942305613774249,-0.18965656026404545,1.2120887572385273,1.7618288694634154,-0.76692392685718713,-1.559254628467422,0.39042218050762428,1.1114593273455835,-1.7859524292875835,0.51378067443658071,2.3727501991263056,1.4565131334222983,-0.97671320228784897,1.3887111364135711,1.4078873900592745,2.6353747029737384,1.5976316330606313,0.59998560277245072,0.11745994966762023,-3.2175749583553919,0.052176423406727776,2.3900934955875357,-0.67353376234352047,0.58717097634153448,0.5713956366444195,2.4081738431212947,1.1893136926872707,-0.38259050306658393,-0.12768479292943108,0.14922092772982812,0.8084062556260827,-1.0153040355593601,-1.6529925691285916,0.93058653080965914,1.3373178262138838,0.14483133362478964,0.50938656977949948,0.097376307588134842,2.0568066773326943,1.4679842530269513,-1.6998300564539406,-1.479095954619972,0.30748527774275758,2.3789872501231129,1.7922220327319887,-1.9825433823628174,0.10042930639752123,0.20059606614534192,-0.35022209313391295,0.27602024716028845,-1.0564192116716566,0.33634099435678305,-0.87631501151623059,-2.070764633236192,1.3003217106521285,-0.75356814782301162,-0.94991467259566542,-0.38894120608949895,-0.48497185706023938,-1.8905984211762425,-0.20470068288898957,-2.0490236693171728,0.59859468906140745,0.13184307109736565,1.8707605645367391,-1.1412989134336065,0.69207492277146476,1.4740625813316595,0.28425444891098528,0.22654169598569274,0.53593304155658961,-0.73872833235088731,1.0040576842978004,0.031421279018758616,0.91465851425970568,-0.061830237055937091,1.0777737327701695,1.1807104948587501,-1.342694214535326,0.99164805329444472,-0.34567346023886508,0.65696665198909576,-0.26634890821010515,1.4782335323748694,-0.96673221986643088,0.70233754779422541,-1.8550022987437182,-1.5848434951262373,1.5709176352037371,-0.74701078899550744,-0.47091104732606764,-0.8662742045073305,0.3935885458218279,-0.33476338304759184,0.4520510981049497,1.0025233838293621,0.11635203127932454,1.1567657496116057,-1.9146997662880896,-2.1659847289732599,-0.66547439823261678,-0.56095865671123457,0.60589203818547699,0.28848727488054837,-0.42866639229400294,0.66159204185023124,0.17114030410898357,-0.30240420124222084,1.0845384353043208,-0.52052585485981695,0.68327962384617769,-0.30170035787831423,0.38899830107733424,-3.269421098536323,-0.57367365168638096,-0.80105939328383613,-0.39340899266252777,-2.0273838899107699,-0.21420454434766745,-1.0390198938912258,0.6241196187196808,-0.4678966109765188,2.6823410959720202,-0.18652393194022046,-0.98149713331524568,1.61599478625072,-0.34693798757254179,1.739281969657035,0.044800969757271047,-0.76388066994889992,-0.50818171753419128,0.52495453231823141,-0.10211881621263262,0.068262526262653445,0.44089748483889046,-0.72709888464871097,-0.54681578129501041,0.46345732885462437,-0.2635242597831236,-1.3874863010251448,0.55649712275439356,-1.0092793102723441,-1.5789359493962201,-0.5068512737876123,1.7214883549891706,0.64932602153349384,-0.71004724527376484,-2.3342460672226633,1.1709910280705462,-0.056715447319085212,-0.69481597013128549,-0.47134539695444216,1.1567584831934077,0.013101717296205118,-2.0384023300187,-0.51219583573841743,0.64492255432280532,0.41823003355949062,0.18360605536109456,2.4413280033853835,-0.36649825702641264,-0.76279876621437737,1.0621279661550518,-0.31725835862971175,-1.7660477465172464,-0.6494855666191699,1.6719789026475216,1.3803543554079121,-1.8271455364396296,-1.8192057033097666,-1.990500201367426,0.41320764354942818,0.11109799443438599,-0.54857121277921417,-0.40360346769514638,-0.20013238741800379,-0.87343449457418365,0.71087384725640079,0.13064669584066771,0.95643144087082455,-0.61757016833742695,-1.2990588113035235,0.92949515817921369,0.50706861236332068,0.22822773808527053,-0.24455843263658014,0.11564232462182611,-2.3273910888842027,1.3753836011472562,0.33734323386994514,-0.0035874982375947583,0.46019790893385476,0.28446273172132719,0.15611461392168441,-0.71491634152341799,0.21454949176097193,-1.0964599471275098,0.30770403338157126,2.208515478092905,1.6092328144757937,0.42809949251062568,-1.8777102860863424,-2.6990663885181454,0.58672253374051209,-0.39395227975643388,-0.52618867762312982,1.1162209066070798,0.70850953052049659,-0.11896422268517712,0.5916406780587532,0.98525513495138051,-0.75531422397316961,0.42149963118501083,-0.81334718468574618,-0.1535630656342796,1.006946643925444,0.478695691376679,-1.1468612669753626,-0.038062814280894058,1.5897053052658467,2.2971308994829269,0.084960779152739238,0.041306824599493482,0.28979481600785417,1.1909106960900666,-0.74769197630856754,1.3873039211136393,1.2606378178793201,-0.55457181775495346,-0.70022522611279558,-1.3704669547697106,-0.40914099010954186,-0.28142936989905265,-0.78617216093180875,0.82787413840646473,-0.75330257652616628,0.0639452749056304,-0.47106304980284236,0.57983565472279297,0.15117072323537353,-0.72717721816541836,-0.90708175891649823,-1.6049963505963967,0.08942596069327946,1.0411382693006368,0.94607351754326929,-0.45700386035862939,-0.9702988714110089,-1.1734577919994849,-0.45412741088601732,0.28369281096387267,-0.11205826269084687,-0.38299511000182201,1.2068121125262301,-1.1181666671817623,-0.80125465507976767,-1.9921207428576606,0.30111464194322285,1.0710300632196927,0.13928906570227503,0.044979081340655973,0.17394764970390034,0.27140887704079197,-0.12030130933978245,1.103109772584504,0.20160404399581039,-0.20162918975941607,0.45686837652038803,-0.51289122922494845
0.21228676149399228,-0.10331226847606646,0.39168354163040303,0.3122618718090851,-0.90362785560157655,-2.0267029469159028,0.75282562053996838,0.38281551834009747,0.83497544159728598,-0.7860770062843917,-0.56927083334283124,1.7094650642189333,0.41918632211169948,2.6554141936712883,-1.5044690773828164,-0.53190644588288749,0.96584917009397131,-0.98507710059216791,-0.25788396290704441,1.9596929906716114,1.6231581704251379,-0.65399687889746705,-0.18043377119920034,-0.5527058149708336,-0.6133190124065796,0.72408602737984606,-1.9845713132821652,1.1520314026353256,0.33421393576055958,0.15890799719290882,-0.55005258626057596,-1.0923191104585546,-0.48958492821253397,0.78114397159799975,-0.85194938442461265,-1.0331668528014528,-0.53470632634418047,0.72362752513284745,1.2864075726570938,0.82216634304880809,-0.91722848467046914,0.56295038338340631,0.17919928428824577,-0.31004462443535102,-0.97860890706492443,0.30278283347674906,-0.74018113523759566,0.038998958460003438,-2.0425271973436376,-0.18443086783300305,0.97368765803529167,0.96594075470688434,-0.58140007483115974,-1.1681909567596964,0.12630829582466174,0.12567523271456971,-1.5286298918081935,-0.84493915827829036,0.59736269048527324,-0.74988106667688803,1.871348136741575,0.87767993457778004,0.68089081571600318,0.95694296286117575,-0.99927074955818329,0.7316143853068815,-0.4445580454825116,1.4561507342536286,0.49518500182961334,-0.75356861114086604,1.412025990889441,-1.8834079175740486,-0.4102138209095012,-1.2027342290589873,-1.916300746307608,-0.017534154935544742,0.15895561110592968,1.0542618409440951,0.83673923137569717,-1.2417567492315871,-1.9289307384797296,-0.40583428183986681,-1.8175761930022178,-0.098420002731991085,-1.0798337274305299,0.95015925689949132,-0.32670301452700129,-0.97743141522756727,-1.368695205626957,0.43257983081692791,0.77964864402340373,2.0695279399715658,1.8500849646537545,-0.58899922957331063,1.9508436986027877,-1.1008625695917886,-0.34353425392612852,1.3523789892835569,0.75367145258779134,1.2375624976857811,0.20189518809559942,-0.90215364068943638,-1.7665559906397899,0.85886130037259045,-0.70935970927033642,0.69428987878233672,0.74972194798795444,1.2114025310334402,-0.098894926619414389,0.044712562643590498,-0.24842741701690799,-1.1681623438012625,-0.86532862111556752,1.0096635796623028,0.47608110791347352,-0.89570927626497765,-0.10840188597337588,0.54086482806131642,-1.4993770186831858,0.45112944323086474,1.1935359808750503,-0.1181568176813622,-1.4740216865235423,-1.3223236973507058,0.2105542105544749,-1.3533106360880498,-0.64308592017678035,2.0961916017341049,-0.82366478030235224,-0.060964819151183867,-1.3676577593409693,-1.0123354892674572,0.59675818950606729,0.41866729316845713,0.69779519074668261,0.85950955724456868,0.7259146588670875,-1.5344439716321716,1.1749001895107039,0.43854843848493602,1.2279910863906018,1.0376223354576679,1.263813016914501,-1.0646143728781221,-0.64307627573101533,-0.61236069250622049,1.2492987417873831,-0.98862978133833024,-1.1732681372169733,-0.80130821430270383,-0.408292573293699,1.3265299649215641,-0.91792332967611912,-1.3857921128733468,0.16861348755024674,0.53972313363784863,-0.17696226940275323,0.025675199218378516,0.1741796811055937,-0.37461760258808691,-0.29647126688700975,0.43735100621556339,0.57042788594225458,-1.0515097047758484,-0.76955536290583826,0.66984150242043994,-2.4091867555111426,-1.1232047351837822,-0.5165795578136323,-1.2742893118113585,-0.45245198944324166,-0.1785490697380861,-1.1793088038587567,0.99465900019149189,0.008017395098599122,0.029122889334813523,-0.83526261450220463,-0.047370178349091012,1.7245953433035577,-0.38845687950809538,-0.28491075200844035,-1.3646339203459592,0.59038339917148608,-0.66045041270048832,-1.1268864800501099,-0.8062170257695277,-2.0555363539112648,-0.71325015104504386,-0.24801745006142106,-0.34039072381025387,0.81375850185697407,0.32735817057837358,1.0849414554919881,-1.1883989664966454,1.1636790544274811,0.032367790284270143,-1.7032540615951477,-0.50508932915107763,-0.71353554984715295,0.12405774273460832,-0.6895847020826501,-0.51173856119570948,-0.68111880607020114,-0.85491797673947734,-1.648453269310389,1.7100738641276774,0.55686958003217146,-1.1237102896640836,-2.1460829710192284,-1.1590365677519532,-1.5072203474810935,-1.4333405123510925,1.0114069592775121,0.56107535131219732,1.6090706072136771,-0.15562914606616041,0.98338892332691019,1.060433196302498,1.9786041601079645,-0.26169579328804032,0.20990649587244609,0.91647194671929977,2.5097839501932024,-0.32119097059380947,0.17221434132427715,-0.48249847967441239,-0.95022520774533359,0.61326187574068547,-0.20819617781937116,0.27175212080303107,0.13723502319137185,-1.509796431395023,-0.92819909720469373,-1.0963185394022614,-0.58773359519492907,-0.067948387767994223,0.48080510619771977,0.35744146764529755,-1.3795575139296672,0.40957526851992115,-0.62531744100907249,1.8151910397623459,-0.68784076504651004,1.1816824128302428,0.12898798138517928,-0.43011241831664437,-0.57356059780062407,-1.6521951825780299,-0.41493631485175542,-0.54799610281479094,-1.3249124861169594,-0.20076583969226985,0.17754696997299582,0.054587093776529955,0.80296589111959737,-1.1809802715386866,-0.81317458677633758,-0.16872749711475998,-1.7199076032175034,0.41434226102887395,-0.55081055655011735,-0.43497393470363177,0.084978433908900586,-1.4259342198940776,0.2189150243951741,0.41468122609722941,-0.2964241703655846,0.66586484482041108,-1.1509111671297989,1.3240347968849717,1.0397078782684144,0.49761760575511826,0.48950362614979925,-0.51151869734692468,-0.57556659966160384,0.95880170043917912,-1.0883269378299993,0.81922509066640858,-0.89856916889506822,0.32242066441655759,0.34595121934248496,-1.3437345705715573,-0.52257455945128506,-1.3949216929138768,-1.0393001505485788,1.8168880437941139,0.39150119515177589,0.27586577036242182,1.0626633170842885,0.60424018185483996,-0.90286602874657473,1.1671553631035532,0.68344203292713068,-0.88749259630671229,-0.50873482137106474,-1.6934343509495218,0.97198841817291992,-0.32177326390562583,-0.5944381907096572,-0.48827689586813211,-0.25118083274443376,-0.82496278406511525,0.53203157927864975,0.35209805275677775,0.3197038836408555,0.1103660966991625,-0.61300296737258531,1.1365555606751758,-0.41233487506783001,-1.1652668297932358,-0.011738975345198467,-0.5421112510130518,1.1172333552686349,-0.088527904655122946,-1.8446862071820951,-0.75071963949386722,-0.53195741562480769,-1.0537343281113993,-1.036560989497741,1.784706727499364,0.038976013509268159,2.6689346961120548,0.25675166020205104,0.48915485662020342,-1.3997333848214772,-0.31557213664120365,-0.12186909988457029,0.72800847512165234,-0.29312764709852002,1.1484732976258498,-1.3357369292843781,0.34910270633223728,-0.86232538221426769,0.44652514220057393,0.95507365903255437,0.46427331656937559,-1.9507978945126732,0.33164097751505861,-0.40335076635052253,-0.24706912811585061,0.55463523473177789,0.67983594069320696,0.79851430567708515,0.33444535169811762,0.64106116172820082,-0.35295642215521139,-0.17621659046212979,0.25186619024158791,-1.2582168497428707,-0.013563185886250363,0.67758036949237133,0.7103573976536206,1.4203364461228485,0.80008718204071272,0.64968351264106383,-0.37192477366648663,-0.78542548967325998,-0.51569465366653389,-1.4508425015382513,-1.8385359732675941,1.2413594881385872,-0.41706644282970801,0.8180557489876239,1.2696654453690546,-0.62591577089076511,-1.0252730607828471,-0.55212821609126495,-1.3360596030759757,1.3209398862381483,1.6550835796154957,-0.80084613872395072,0.21978472446854355,0.11025360056569156,-0.62095125455160549,1.9722765114056977,0.42839012234153478,-1.3610016457560115,0.30333308172321555,-0.17502174122374467,2.1727172418838108,-0.63303146355288542,0.15260930025750413,1.4736386701293032,-0.91166352646361137,0.17759506756615021,-0.2747280025162594,-0.2236344655115482,1.0454926012528527,-1.8877579984980175,-0.49086804842986148,-0.92464215828559393,0.35009400873284785,-1.1095217955985581,0.90561598023292678,0.33694393198182204,-0.79419787910764661,0.72683707045504631,-1.9252780414067558,1.54484669935231,0.33165324603080593,-0.053625140742520304,0.064815444998094621,0.22526868468719685,-0.82400745279888521,-0.85556458912551459,1.242459872682085,-0.58114987752892877,1.14376514655429,-0.29717677535850318,0.49941549616070224,0.7274248427560327,-0.38409965115059613,-0.24188037670490753,2.0177865190044644,-1.0346284153421641,2.267311323691878,0.066464945167957742,-0.32167190109157434,0.20760186103979311,-1.7873284589797416,0.59513206806767927,-0.53407519981858964,1.4647291890277101,-0.01664573074335007,1.2263128212963001,0.22514067228657386,-0.43038371922801993,0.29049592617473874,-0.57020898671282483,0.83138309096221263,0.51827366337117331,0.17371446801856841,0.26024519681968489,1.5544405988050671,-2.0782221621348267,0.47075490001069498,0.54605696192798414,-1.3644789338881127,0.37763740101823479,-1.1326598304829758,-3.4805154483585623,0.22471235271029424,0.88691733461472255,-1.6194758307201433,-0.48366328697022604,0.14740231578422139,1.5270202909845731,1.5921923710800505,-1.3374951450392751,0.20984767558909348,0.77619191634545659,-0.39900158940141223,-1.1996904522794196,-1.1200122222837821,-0.95419207546195872,-0.41909738545627351,0.029246137568092089,0.5549171137593083,-1.0962497020551549,-0.78901673041512999,-1.533679148750785,0.84579859375557109,0.61256714767140941,-0.43440873306931727,-0.9499981304983327,-0.45081156561713248,-0.58128635719102406,-2.0513303181670928,-0.85465914518917863,0.74849898256828218,0.96894147970235678,0.42281450316018859,2.5013638462088341,-0.4556393352160501,0.47800396061829814,-0.41807701596103358,2.5836132501091464,0.26770388676894447,-0.010662820923672378,0.43118385062197395,0.16492321939427926,-0.13812301828363358,-0.0048972962279244603,1.5834616049235906,-0.041976901415835016,-0.203914572740927,0.42111393222784371,0.15870879653613154,-0.76998061422949793,-0.52898787414707349,0.03405255467063064,0.22237004997903101,0.058002394099180024,0.38530285554808952,-1.4821425020818575,-0.83204463526727945,-0.64131791639327573,1.4390132333941061,0.91332366872034387,-0.25039924279688236
1.2137932247274414,2.1753298956913367,-0.29598183309326731,-0.22857408163060286,-0.3198109906967227,0.36308590307241934,-1.0493763110393874,0.16036559684203855,0.41662182253157787,1.3706256280746651,0.089101288986591975,0.63444430589957268,-1.1171870665933206,-0.29582059147725631,-0.55150357992459864,-1.2240546051145857,0.39034715596248748,-0.17641073068672666,-0.47181273550254205,0.94868667776563176,1.1936114162008862,1.0103450951160307,0.24373941695735118,1.0584583883531504,0.61801582401300048,1.9443345178965157,-0.35916444069246128,-0.64453443621362794,-0.93384081446660971,0.51651222874298186,0.4339624502785388,0.15778830176895287,-1.7387268071303046,-0.78776512132578302,1.406346238538279,-0.79763602940262135,1.063734002082886,1.2899067579178065,-0.67978416066974934,0.77499501574921148,1.0808543371808315,0.93534867240987896,1.1046186879163653,-0.3104096096178246,-0.7243348252419135,1.3162325760894069,1.4433736586493342,-0.80951040932971885,0.073021468423997732,1.7384192325428929,0.078362755573911522,0.72234877035271217,2.6044873497215972,-1.6360955598616396,-1.5548361286661005,-1.6729475560306355,0.52980824881948996,1.0663853512132953,-1.1705172869012066,0.90783890192379346,-1.8057414223149593,-1.8461699728612893,-0.43789451374860699,0.0061315291489265206,1.4249052720305264,-0.41770411430143084,0.56551597834469147,0.75057044647072479,-0.92474829717054385,-0.57992629935182949,0.91304299846836912,1.3271068093820948,1.2982369791530777,-1.478848793969546,-0.24301549808324796,-0.41513475007517781,-0.22637375331851514,-0.70656725564426104,2.5701925545697657,0.93773912881062538,-1.159911097033439,1.4098551041211134,0.71892052141149387,1.6097787530506091,-1.5735553316151489,0.79466586687790652,-1.6227594051871841,1.8444462607511252,1.5322489405723989,0.18685008358610553,-0.60753256347880202,2.8251903514365444,-0.96120989893263642,-1.3974102659633976,0.33330825768078787,-0.65774796525881385,1.4392921566090608,-1.1102342948390149,-2.7814282528561742,0.49013674158728848,0.052402616495476242,0.37427229421290692,-1.3904761764814206,-0.26509369173485064,-2.1731211630671488,0.078830433677591863,0.11036483867457425,-0.091643279151097337,-0.073642481836963675,1.1844625351004057,-0.10240603986305841,2.1897655577038235,-1.4590536249653934,0.50002604971199704,0.46304682536291436,-0.50677220416495106,0.43541509563868003,-2.2651505435271959,-1.2449539104428442,1.3785100861133788,0.95272480165207429,1.4292610401032222,-0.92277644591898378,0.2503157949634966,0.38932427067559133,0.41871212619558068,-0.21448945660981614,0.56747287703792637,-1.4715060843192296,-0.08527284254783167,-0.50801592896760595,0.40391179781185882,-1.4401231173454945,0.68738217487064246,1.3462343010376618,0.26722647372115627,-0.27015514168005311,1.4689137212284562,-0.12173154852983654,-0.62759206763191511,-1.4538600326471862,0.6167266792109547,2.2284356361442215,0.31456802548039203,0.80369172891189966,1.0400143811378817,0.059587164444324769,-1.3042053818059076,0.32772027967249512,-0.3242517461345869,1.6784709333092551,-0.67113527391392402,0.73173200002296479,-0.17893558058853956,0.86133970921124314,0.19180449020733925,-1.1501966498844911,1.311048243116981,-0.97675535367700961,0.59734295691374006,-0.37405643645943448,1.9171225355534383,-1.3482006079448645,0.0093890479191718248,0.099191881691568562,0.80157493303327521,-0.17166494531621673,-0.10442972268744491,2.0295330740864665,-0.86714783506488813,-0.25194155201999985,-1.5465303592234916,1.3079793050147288,1.5358055984728236,-0.63997813622760624,-0.91537300727293025,2.402593134440774,0.76981904816955438,-1.1803070131001989,0.96921998971728185,2.1665246722280136,0.069378558258284637,2.5971054784739755,0.64306160290552583,0.64662001195521024,-0.1508453128727095,-1.8906429485736398,0.084303369147580159,-0.17930449355302161,-1.3346548833740293,-0.87787037698386705,-1.2055440124800418,-0.58638936653765905,-1.015549733825216,-1.2435666126272387,-2.0852237407349246,0.61808486728678513,-2.0058689074204423,-0.49874844499296006,-0.86514895831730254,-0.71247558591071303,-0.87483901074961945,-0.67102384576220009,0.11229953988114257,-2.159608471141734,0.66088338974628713,-0.4480174919525951,0.67370381198877172,1.2292343568827093,0.43463893210893723,0.25998041811342149,-1.3760102005581809,0.63192111271052565,-0.77742813121789434,-1.0989072458133218,0.99183272106213494,1.6913064470300043,-0.85870551643417692,0.74436919239725496,0.5836285425982809,0.33241398094607216,-0.78237984648085879,-0.55713084090250509,2.0473618569924379,-0.23788549524786867,-1.7837375245805323,1.8101958603114556,0.80628911482757104,1.4359530224598456,-0.57657068344110241,-1.6475514171538455,-0.68894215253023672,0.34557407291665326,-0.83316521359234907,0.49231969385823571,2.1054721525375459,1.7560152993926013,0.41873276193458531,-0.7444000458314185,-1.2376839696258468,0.56908304223197392,1.8592228053281779,-0.49084559142110795,0.64996376631917108,1.2647352467516644,0.30755235822942756,0.3755734518513732,0.68612666936682931,0.11505824390406268,0.97900147794620496,1.51911533833001,0.6435573668081408,1.3150874066365639,-0.57585542749690299,0.14806974761632477,0.10946741462744353,-0.42190471343635766,0.11121705794574359,0.43115619538687355,0.17091325581362204,0.15746600654099324,1.1885096947758416,1.0056245766468692,0.12054764490661893,0.88485780961151261,-0.69672757548286213,0.72646945203600588,0.52319140784397966,-0.23760987939803613,0.33862752141899183,-2.2166698126264617,0.4858244507082139,0.78741516340986295,-2.3814113094921185,-0.14114014048653983,0.23257196889178017,-1.6557264539512424,0.64345103273595905,-0.4814132346562473,-1.1715109552128562,-0.92389514420826058,0.67951772494180007,-1.4237262020516885,0.25533850341753445,-0.12565445981904907,-0.73308609002030256,-0.38600257019256679,1.2094590771897404,-0.23946155831538407,1.7579603523482639,-0.48999734960621338,-0.086891838476574335,0.053512357650207509,0.7180026530495065,0.51815383091896683,1.1260522316201138,-1.1024949916011053,-0.17433656678730072,-0.15491736587240099,0.55211372447095775,-0.37642495131434173,1.0735629651653023,1.2724398598845563,-0.84288273494138233,0.7891045902781606,0.87601089580826697,1.3935713207731115,-1.1567636972101381,-0.45150829781534585,-0.29509822588442347,0.81168182819196888,1.7276441976231325,-0.45328553435065061,2.1164410027839842,0.31956627692011436,-1.4677434222048669,-1.6058763548014172,-1.7537467813129302,-0.069609834168627593,0.88772921023441009,0.56795912517039282,-0.39469299937803409,-0.41281582638701003,0.61890062036327187,0.37868189099426564,0.91448332758662665,-0.78630263206165085,0.3926408844554527,0.83849193559146562,-0.59017125029443473,0.12670732882627367,0.31430142042268155,1.2041023387909966,0.13152466718934397,-1.2965830517688126,0.42754011790053492,-1.0210969778904897,0.505440670885139,-2.2049038558346474,-0.76663811180954278,0.36837531392198331,0.55998796790341321,-0.075195680265438727,1.4887004242570998,-0.90291467681286053,-0.54615983600937845,-0.81571231552347823,-1.3682437260822191,-0.97113394618383264,-0.80324706513885491,-0.048723656655011154,-0.47427704588995251,-0.45020244286308519,0.97853714389033619,-0.89447046812434272,0.49765277534023172,0.61045787365342252,0.52241741536610653,-0.9579429541836938,0.96360374835670304,-0.022470585139029001,0.35299573140229318,-1.6520551089294171,1.2056758834569441,0.76269383449391781,-0.32862968797075109,-0.87526879245567357,-0.74125633254091938,0.58840959317001806,-1.1514604539540625,-1.0804088892509289,0.57492282671049699,-0.45280308290994759,0.82523231608370096,1.1076339583898234,-0.35736797562551692,-1.4306239351156822,0.14195682183752797,0.35979409966775205,0.42237265185035483,0.26307534693867196,0.68324332034479884,-0.97106542940929796,0.62638383925717189,0.87654024069902603,-0.53421866995864542,-1.2693156246288511,1.0118995436193066,-0.43905150463595632,-0.049652710097238428,1.3547689288483582,-2.4134800188551435,-1.4952990725913395,1.1964693137597979,-1.0597909750981807,-1.1070301360592858,0.7985406410002136,0.02494634013966893,-0.29154380110426042,-2.149901034460298,-0.47594354752384854,-1.8316813548605759,-0.6420180121752409,-0.080524444849003521,-0.21636205841571884,2.4152708286898674,0.071873864068231694,0.30562050541496139,0.76899418992171087,-0.62064869825362368,-0.89234697315671929,-0.45383126265846352,-0.34500684101903895,-1.8378172201647573,-0.19220100532342022,1.3542338072860824,-0.99810627444790445,0.51132187971367526,-0.67693803953020859,-2.517885190079618,-2.1820899609622657,-0.36340708739888916,0.63160265763655099,0.95934576352265877,-1.1876895038261184,0.0053966149263319167,0.10163798550662551,0.37449708894955364,-0.41583265932551339,-0.70221933864501818,0.27850033214103403,2.9662486635850827,1.6271191531448119,0.52578244555644504,0.76870227970832772,-0.19473921703805994,-0.12454334219637403,-0.78073304531267984,-1.4214193002861359,-1.240291118416107,0.69382620341001267,0.61702093966479121,0.88949659178552265,-1.4076417434010189,0.89254671326953472,1.0675261570473735,0.38426486914468994,0.96163623342597404,-0.13654918889411949,1.1091396713565149,-0.67784580905454395,1.3497424010107195,1.3056673467408528,0.35914870122790432,0.52515068843231305,0.40762510631059135,1.4979540615975004,1.8068896866856976,1.4221516581254516,0.25819715309139651,0.4448524730495409,-0.77453459275448033,-0.71139602000279856,-1.2642720868581783,0.88186738698512435,-0.58094351245282017,0.5618193807719486,1.7133221865418895,-1.4708793529032504,1.4212899489056521,1.7422089855251808,0.87079850124568636,0.041783092593512518,-0.18659258627282721,1.4332611310908416,-1.388495559364034,-0.13708288987728678,-0.040538416147298986,-0.92170574317687548,-0.68333157459887728,-0.077941899445055376,-0.68289016083301879,-0.1085237617935132,0.38746701041555859,-0.41285750855169906,-1.8618941569067593,-0.45021602582590436,-1.2975302971795628,-0.16537170486224251,1.367294970288959,0.5980311921328606,-0.95958088941403941,1.1216348904908848,-0.082738127646478629,1.9280211115107477,2.2268627960035632,-0.45038822092870523,0.56154942950670717,0.051534059805134418,-0.71098541219087352
0.57188315943228696,-0.35517050545716766,-1.0549185446312344,0.1576853103061345,-1.9163560974701437,-0.50939426492277584,-0.10552135519061968,1.68122117192017,1.0098104599353435,1.676875222465017,1.6655438565938938,-0.43123471374676853,0.21962237664748602,-1.5134120102905524,1.0324982990416098,0.0077538145956217355,0.92295041148395618,0.2267474767965014,-0.33736487916111368,-0.222283759840436,2.0763326864548444,0.94635953638191983,-2.0402447368751133,0.74345156285317893,-1.6221068844772291,0.64708754226680676,0.78342882577160611,-0.52635910456219592,0.93770016797860367,-0.19124880804049721,0.33956415458715761,-0.42092898282789981,-1.0688014001475139,-0.94777018361806409,0.59044498427044267,1.9148406618781602,0.035404037180687721,-0.098899541915986169,0.42231372845471493,0.17971615965522741,0.11507715904188304,-0.34062868942282154,-0.44431886750534783,0.6273001863646317,1.2369706584265481,-0.70968478212224406,0.73806652061423861,-0.6174377453965576,-0.82868190663551289,-0.9142200089971132,-0.070110751096229218,-0.41515461519093427,-0.077433470876542648,0.20342764953148021,-0.14764953151183277,1.1078919175211921,-0.1852058870213652,0.602174742531562,-0.049530257671889587,-0.73200207267113326,0.39026773583718621,1.1277038613441792,0.96700693305722518,0.077960522834232646,-1.2630809295567154,0.44606647692989504,0.8454019584843987,-1.5497461564494905,0.99496049451780799,1.263108862198917,-0.25150919282163053,-1.4137509004468543,0.29790893092295728,1.8725458752671396,0.43708774268183331,0.12203167281722258,-0.019940675378708486,-0.70061493547356624,0.043510124150316583,-0.36498485742132325,-0.53870126792044259,-1.7160146905123799,0.90926403798300504,0.44506954373412333,-0.88709030036213132,1.4589217431790085,-0.007552531573073399,1.0545052691332124,0.40729937400958854,0.42333069482961233,-0.022832594746738766,-0.88284689122964011,-0.48085637556970767,-2.1158045433187072,0.88942480036760163,-0.27869971522333442,0.073951298637887894,-1.2166209777472097,-0.40751115244673175,0.84466061584257224,0.1710645350851607,-0.34204926125089752,-1.0157097614378232,-0.72807843831115715,-0.59130382020244632,-2.1640512908962961,0.26770180716169495,0.51326081403669399,-0.006644074372246029,0.5031116165531806,-0.45188994762323659,0.16817222425826928,-0.5483852365683648,0.25625348007965743,0.62862612353935998,-0.50354054380350544,-1.0408481544381671,-1.601272957182645,0.39566160804890382,0.4871382707729609,-0.40668762479103321,0.018579366750151621,-0.26533267270683203,1.6502543884355805,-0.60482244487545944,0.16415557779368306,1.2755951244321078,1.0015124887677047,-0.90538734883743155,0.55269160761789982,-0.37000335161356107,0.036274270301510501,1.8417983841661356,0.72186083989871397,-2.6817705546318074,1.0354558167195582,-1.1785693370295107,1.3575330862113799,0.41350076800306129,0.6955426240023399,-0.27166403778809745,-0.8960144723221205,-0.10751053213062954,0.080182108117111156,-0.89377481405283554,-0.32694813508121418,1.2423855480409596,0.35837879247610621,0.56520322073565799,0.40101484047974556,-0.32060940776959562,1.0915550470578539,0.2658743285423657,-1.0511097103668368,0.67162214174335821,-1.2841522181972473,-0.57565007521308786,-0.74875240383171926,-1.98072490739435,-0.67591075622345242,0.14993252197696458,-0.66375344719547735,-1.2822781564558441,-0.63078191565648523,1.7808777089452423,1.4526722326000738,0.23588382986101486,0.50724044304071325,0.24458851742003332,0.40893626240131742,-0.51851517249254153,0.2080650702398934,-1.112343061545658,-0.51325741961462945,-0.31170733688710811,0.66172579813567434,0.17217021325147538,-0.5014824788482527,1.3910166710516487,-1.0670759497357896,-1.2343227216057331,1.5195719794165106,-1.3705719307434912,0.31128653327022354,-1.0459415328848569,1.3764923533609723,0.65285946757555113,-1.6638010893245549,0.13775236828175086,0.070455770031803269,0.30523996522809205,2.7848492851603073,0.71825917303106956,1.6771205034896399,0.89000876676733753,0.70560295252870653,-1.04092830186631,1.5629671095973559,-1.8306098203304162,-0.14260087534513266,0.86105885773547763,0.35360406578132331,-0.85815733710482689,0.38340548774336308,-0.18535359806226465,0.90881254101226872,1.9573922145564391,0.36241040860194212,-0.23655221972408336,-0.11928769298566226,0.70940252131590431,-1.7484674948437231,0.89656646573598253,-0.20230883002602723,0.23364774272481809,-0.30047074480725411,0.080313743883016486,0.5603842090928578,-1.8963560329203348,-0.11096658707358611,-1.0763728508522608,0.74303708588479067,-0.63313240445433705,-0.59856403761606203,-0.2631921064212423,0.46466214920870913,-0.31361096135938449,0.49648992596319647,1.3313311556138439,-1.2056932892092505,-0.22555127063279465,-1.0567736442889188,1.1085824858943922,0.40805899452551103,-2.5435243947478967,0.78474593335833565,-0.56225483392150921,2.783656449270854,1.4329352225770877,2.3158293909027341,-0.94585411689929688,-1.1328041315245598,-1.392517200918548,-0.089361924857207828,-0.35980976311146878,-1.4210731232455169,0.29821554355431262,-0.46538839318414765,0.57408598811216494,-0.55093085394862829,0.79762152527031205,1.7445855357035258,1.0452401595775573,-1.5290999079469796,0.50571266777879098,0.22197165527242102,1.5792109012987319,0.95699435039951641,-1.9044244811306634,0.4474325878975926,-0.85698478695160096,-1.3136701206258223,0.65172483804760561,-0.70831150744163029,-0.24187801849480708,-0.23417833327538978,-2.0029707012489988,0.9862035426330702,-0.82831898911893209,0.44662489868719313,0.49081981127565016,-1.7265587714784461,-0.64947100747718056,0.20353989812992471,0.53475274147104312,-1.4021087784676032,1.0280092644288183,0.11650542729924142,0.89549093535394286,-0.83723168308982243,0.21753792991685761,-0.4696681405506169,-0.034915142421909198,2.0424990427553746,1.0016234836488651,-0.9039421179823981,0.54947531266385286,-0.3111891334220005,2.3147025291028789,-0.67018529687369965,-0.7941044710157571,2.3171252604938872,1.6132752845465612,-1.277651109582479,-0.92924555905831829,-0.12024557546929908,-0.9193158571948209,0.48000699707650124,-1.6321981316430199,0.31943156950226043,-0.9354389626553733,1.9970885400682525,-0.19487249671885881,0.44285469357651308,0.61079332841747036,-0.4724893951180606,0.73950321914887096,0.32736245046603402,0.73088878563522675,0.57188489761698014,-0.12912151808560396,-1.5837199432982563,-1.70691587671126,0.23565255395653492,-0.050798741388398301,-0.73269564472265292,1.1385368976775396,-0.37921829621952791,1.1380425058383736,-0.20213941203588437,-0.37539865528997973,1.3771156078207949,-1.3820218874370218,0.22535834201749658,0.15062581588169796,-0.93512371916088077,0.125940649937618,-0.50655401805238787,-0.28040622543725335,0.41039144701149854,0.045390729396215156,-1.4593301411304138,0.24709290400014866,-0.90866184606020195,-0.70263756143173528,1.1330745517145586,0.18123924901728075,1.1007491770851314,-0.87561673568071308,-0.21161407713460043,-0.84314374412763338,-0.17511810062458438,1.8412326700034525,-1.0814786363038207,-0.39553501844366162,-1.4520961295888606,-0.064209321860290977,0.7251757780298963,0.73244475524454289,-0.89705074973095733,-0.13992971290203793,-1.7212988841276091,0.30720820545295591,1.0394180305545402,1.0329883274192786,0.57197103751714407,-0.19244305782203375,1.7337894382539425,-0.33962823709638312,1.4918977917278768,-1.3414606986248054,-1.1194003808646991,0.42287397947623373,-1.1290277810571594,0.36513755553458171,0.22721991091657606,-0.98428606730647439,0.21084798607515534,1.1803813207177798,0.4668264706558361,0.63494261179366829,1.4711429680411328,0.94995537301245347,0.47306982581252199,-0.69245698440429648,0.65437155797089863,-0.41211394735821399,-0.58809171753801337,-0.94095284967333059,-0.92474599621323805,-1.5275700874199085,0.094385713804999605,2.5342251222286771,1.8671561478965442,0.57313215637201975,-0.85466158185355168,-0.48221223124079959,3.1764453657994647,1.0903170300981504,-0.60278237215660679,-0.27520704700715087,0.17535607015013654,1.8265668214922,-1.3209757826890021,0.76988527390995054,1.0536679816079002,-0.35819972327107868,-0.87448778713328756,1.3427724486858068,1.0499403062294066,0.70376787883011416,0.84522794326900097,0.16588133227493465,1.3869130259667808,0.08437976235021509,0.24344871512303129,-0.2083120943630376,0.77603938651541038,0.66889169142301341,-1.6527253462511065,-0.4221308771455739,-0.92449476957256682,-1.6515975188249594,-0.60094786975083259,-0.73653634072519791,-0.71682093054513363,-0.089660506280815705,-1.523435510249566,0.16223454378173618,2.0346218622633367,-2.2225508956207065,-0.099655588246102281,1.5291519520893306,0.80164687586322825,0.66472529930163771,0.63830283900543461,0.6916184657744846,-0.10791266936451624,0.2715704658147452,-1.0167168884854494,-0.24917697282048226,-0.38323623437046178,1.6525546752758855,-0.87998101703759068,0.58504744626546645,-0.43710103227609498,3.1270234365834662,0.83644269032987784,-0.70041700422358377,-0.24642593274461408,0.23975522206245112,-0.069315145125226851,-0.57416502449155282,0.74663751245301813,0.32898288707644718,0.38504433989342252,-0.35932947377405022,-1.1192256267664731,1.4503259853755364,-1.1298527259033626,-1.1430145094471704,1.1658981676699689,1.8068978091152836,-0.58528698863884965,-0.32703544719649924,-1.365704720005414,0.52088201260329425,-0.28908886708073506,0.041785922569374592,0.00019443448860616979,0.48278932923415258,0.1394198755649298,-1.090453513691072,1.4904420058368311,-1.3068035836328058,0.45494146037995842,-0.23325278063888302,0.26918494276882571,-0.024146898369497776,0.60728296772978174,0.56377780357132035,1.3089194113721814,-0.37690379838417537,-2.4253387016006478,-0.93152114392659169,1.2261679640775709,-0.84835505725331462,-0.4057259665188982,-0.39140285506662598,-0.11872382283155221,-1.7842752517290581,-1.8857325112843888,-0.089065303791754383,-1.5800884767760917,0.65309004067608589,-0.88698696528585685,0.29498084228400251,0.32571473249184896,-0.59306703830010932,-1.9673834008581315,-0.74491960447380035,1.007408893113217,-1.3622480755572202,-0.86105104491117024,0.0056447179802717375,1.3149497389931044,2.567253094612433,-1.8255365611535017,0.17000516160666768,-0.42139336108662501
0.89189713906510104,1.1914962276203649,0.16200814640795067,-0.77453588615338009,2.392238562382317,0.28939541325368262,1.0601627072833169,0.64320162032228423,0.067448164735188346,-2.6763534137329166,-1.6486335257218239,0.19704858989898583,0.29769397322139995,0.27730656217745669,1.7933567397615879,-0.46563566237930759,-0.039036768421754214,1.0250440975497324,1.1420552241640105,-0.88906273712196038,-0.26093725831211179,-0.16659053787388398,-0.31029278543271449,1.2615003855865727,-0.63077258802209812,0.54827161621810516,0.97000973870383955,0.33185205688861685,1.4464946107460703,0.54844123851345872,-0.90766572799562673,0.21247527999651517,-1.8464489220462719,-0.66444126264714898,0.15145501558891775,0.29686201986087984,-0.30955969228128366,-0.001462709355242798,-0.87582420027202279,-0.95962155979933084,-1.6336463503685594,0.67063108804842675,-1.9009241488279072,-1.0071378529349266,-0.77274762403346708,0.28646687557584788,0.95418948592302166,-0.2342769205688133,-0.97996671470541374,0.10186900478187573,1.2946056343429726,0.055484977530685951,0.11036181782810345,1.549186382334526,-1.5711427400603428,1.4180581886588348,-0.6061458365319814,-0.28176045930745158,-0.24502709217232974,0.095494552471334801,-1.0246225359334451,-1.6867794349165819,-1.8500801173852737,0.43848353850621546,-0.96266844471089974,-1.4342339677308726,-0.65373235370665073,0.51322806237607399,-0.85726687646622801,0.79862521056933822,-0.75206553168832113,0.6373979092608022,-0.5167697800048453,-0.84940666781500751,1.311324129148143,-0.0773768554768859,1.3085513022125217,-0.089675390228519974,-0.91751224188484903,1.5818717241366769,2.0963888301300089,-0.53889019717595377,-0.52497839017711989,-0.37012158725547856,-0.50228755072855513,-0.95404917775529552,-0.28011097190547224,-1.2227856649971753,-0.54254057516001475,-0.99282365705093789,-1.0735655270298541,-1.2306114889123003,0.40285787456766053,0.22306479427002643,-0.12280401457244612,-0.35359644676781099,-0.095035875689965243,-1.2131736062960337,1.3948922128617796,-0.10750927289764649,-1.0950562311985534,0.22465224752511465,0.33092841218122454,-0.23964095939143037,-0.34295294824665629,-1.6880482101274428,0.25568317940971408,-1.0002714444511505,0.8305335480693109,0.75012015395368603,1.9661548545707899,0.23251283459767366,0.27031251870746842,0.76425911664791002,-0.039322016960155651,-0.84130874122451638,0.20924197522841365,0.63976311401555863,-0.42059584075821377,-0.34261207606030514,-1.5719242831652454,-2.7760869116610212,0.28990477446232299,-0.13369973869277607,-0.080535036056729001,0.20454446482833855,0.70218012929038132,0.014400074248786143,-2.0093415304454303,-0.33440378011517297,1.6587281752606049,0.17707342145805385,-1.0078943993821103,0.47711149960073973,-1.5606161068923299,-1.5185336732582859,-1.7466443587589577,1.8327824735266225,-0.29049496313556228,-0.192619220831201,0.46704543548743449,0.088593686651953718,-0.15830584775176595,0.12225000013178275,-0.38629794332926232,0.11334856226279998,0.19149746754425637,0.083914619490884246,-0.9114628802648026,-0.064047322477755922,1.1559179650291738,0.9792979675125012,-0.80078141761567234,1.9784408838331653,-1.0724141113097929,1.156782555508491,-0.45749036419776157,-1.0192793956274659,0.40710316495635029,0.74900104040241722,0.93809087581421979,1.5510248962347313,0.94874255826883169,0.49078895888788976,-0.94436630998288607,-1.8947815264621539,0.91531354627762651,-0.42496794893055378,0.73754598924690828,-2.2870512512115937,1.0363505610215575,-0.40086281416405434,0.5098865658002858,-0.71006351123459033,0.14705870859222817,2.0137213555694302,-0.24519599284015439,-0.91910840848827091,0.86022657485762311,-0.053852366402198433,0.1106506464899193,-0.72897995070748234,0.18921759773083496,1.6459271576007535,1.7084232022246657,-0.013693123227558173,1.9545306819899559,-0.13560501251019177,-1.1549293412102331,0.52299482719998913,-2.0153107454471022,1.166245679552862,1.2011492550010214,-0.15310873685444515,0.22458297490538512,1.7569817707129074,-1.1448783256671564,-0.37196946568597722,0.19881262153535634,1.3264904853379675,-0.34647449333591862,-1.0357335498695452,-1.5727385576269948,0.080013628810810103,1.4463317704934888,-0.44362630210280324,-0.93653863868696263,0.6249591314496008,1.6548918735350018,-0.31685795673776868,-0.13107941526773154,2.0335935465260109,-0.4839339904832109,0.63511412645463516,-2.6438116005392645,1.3558797312882569,0.73873784281929245,1.4535381020516451,0.077425405077751822,0.70591162863827694,-1.419678550855048,0.38683126358859676,-1.2587513513970003,-0.18863500425602117,0.39182884107585941,0.31216632740224215,0.70133925595421986,-0.20199558279450694,0.051352646310212226,-0.37343934407901136,0.58836560200420573,0.39878990644023554,-1.2912984779019931,-0.67776370343825354,0.39825341486050181,-0.64963049585830901,0.89039046604558236,-1.0521131525628646,0.43742934846988035,0.38437363218846365,1.3324453321266114,1.0841639531842113,-0.28185320549502518,1.9036327200112864,-1.4321224716008235e-05,-0.61094957822556728,-0.094923935542935781,-0.026883361494619198,-0.44562404064930766,2.2086342658840965,-1.4979115529151543,-0.29643933000862016,1.0879618736025936,0.48929384410024623,1.1136042163508892,-1.195890974173063,-0.49135785907830715,1.2681568616611982,0.46980705972338344,-0.034632459891814509,2.5313414700470274,-0.54051476251286135,0.15318452149349071,-0.24634538484453275,-1.9934570710849808,1.9014332682322368,-0.88035506462238744,-0.11473829298554923,-1.2202917273018561,-1.065184931032507,0.24179336636399218,-0.89407493261115689,0.34749009839700035,0.10869916542559337,-0.577273863211205,0.2356043935112985,0.21261439817790254,1.6947893882268632,-0.39600112989310515,1.0166232967094848,0.66095957854401177,-0.57539301140241572,-0.35056527406875659,0.75252393103842119,2.1764153217717874,-1.8965247670333185,-0.54033835002938824,0.99476152338109147,1.3900356441543913,-0.5397325883041012,0.37118808921106428,0.52251556961192858,0.056035770295138211,0.77605323920128122,-0.58206071339573884,0.073785215069785234,0.3791792752897683,0.81944998116193046,-1.7987466710203548,-0.39022691408328691,1.2776536449367877,0.43857981492515768,0.41419469791336139,0.36242857413277985,-0.16668788933939047,1.4093761045179167,-0.17526052759724012,0.94148239388420329,-1.7305492503598914,-1.6896066596643595,1.634220939509194,1.0790516980266582,-0.87841972845024985,0.29287325367421629,-0.23059082866487046,-0.76821365957677468,-1.4177976501464769,1.4235618760269249,0.74830920374093191,-1.7170234965727111,1.255858369653106,0.74506083337717322,-0.39836344159778175,-2.3119777328980589,0.16742346441046174,-0.014292982303915893,0.51489755890155608,1.903472834917191,-2.8926050932667575,0.33069273781543962,-0.080822781427901072,0.98170697763435599,0.44900243737250622,1.3598399457807899,-1.0306304422794836,0.41302497063779636,0.38359009208185735,-1.4960665952796508,0.43230710748340823,0.67537464107383416,0.82781230824811658,1.2738927094916792,0.11622599489700833,0.040024908831927046,-1.1164377642556904,0.038580677799691238,1.3192079483656178,-1.068094012589166,-0.39197532997520995,-0.82456979853413015,-1.720832234007853,-0.65712662148055434,0.029141280685427286,1.1432834655125712,-0.1617992752962927,-0.54530376367914601,-0.40828220900473799,0.068643266126065264,-2.4276907838123196,0.5142111022244179,-0.48240382126568898,0.96324654449554659,-2.2085901646367967,0.91386301327081665,-0.21810391232190005,0.27014684101407171,1.0932883268917972,1.0867444084804587,0.006900273926114418,-1.2119617023635245,-1.8154852753904152,0.19612086231319314,2.0841788283482372,-0.10312732949553328,-0.15033520989457222,2.1283675790277528,0.84235047456666523,-1.6226536217150127,0.14739702524797191,-0.16775328829809574,0.53782699283240054,1.1487938614105608,-0.99516242764592944,0.27956643034522394,-0.28802833430017571,2.1890107535428824,-1.3248669509390094,-0.46531387062062923,0.35517291184535921,0.69804750515479641,0.29319845191420352,-0.5255544886006952,-0.81364826336577267,0.34741812295678892,1.8265712706425321,-0.4762999275887827,-0.0068527164903524184,-0.045159693443078464,0.77845493895903306,0.92753150101727022,-1.4300680559916787,-0.37630398293249206,-0.45745020846475354,0.23152448053176236,0.63536902284555508,0.50016914313757077,0.054039713758739845,0.19557823119215642,1.0986390697106327,0.39082381136397981,0.16107742530494015,0.061551487853430745,-0.45968649741521289,0.19733700839158588,-0.69744678159978035,0.74180833758153542,0.12709947047676753,1.0486672040920002,-1.1741639184462549,0.52166954842151458,0.62620731861642387,-0.78460076032031389,1.4384985177977947,0.71824218568197917,1.6733680429237365,0.75375214751610153,0.49659561775252559,-1.0325844680783838,0.56213179768394217,0.30350258203076119,-0.69652645937927349,-1.5251905564825867,0.98489540985353519,0.89902428193113459,-0.41197900474033317,0.077807919853211463,-0.5165711231139356,0.40561368443124635,0.61142967529418424,-0.094101347823594944,0.60599177911707658,0.39681827532339836,-0.63773235164032693,-0.67143925278413652,0.77131289973257977,-1.4589780133577106,1.2145658763617877,0.27392838787130092,0.35384725933980704,1.0105353269903734,1.5088507658819759,1.1259942910175826,0.52345146685619304,-0.65482461486663257,1.1809574584863056,-0.018679942513350787,0.7602993331573511,0.20061360628158806,-0.13182578024758643,-0.3330999610025806,-0.16242500636271254,-0.27177110405202981,0.3991390441228726,0.66040999286636193,0.23937902355970556,-1.4561330835236321,-1.8920555397748946,0.70724195161538439,-1.7528078857466243,-0.42879553499323586,-0.27106348621126519,-0.69431116676257931,0.14274415763031723,-0.031815105336953343,-2.9483430021957449,0.93106570095574182,-1.1556651745272555,-0.72697746437183508,-0.93299808350679769,-1.3079961539722491,0.55415626436121534,1.2639077424771687,1.1160431460224607,0.73859029665210107,-2.9185245910574884,0.13254034747692009,-0.59737099853764764,0.28612681203976009,0.69951855712765931,-0.65032604277944017,-0.28521829265489296,-1.3374082598119961,0.21869586283046377,1.6131265458098059,-0.69554407362882142,0.60332544381387254,-1.4841768895973075,-1.114510512997108,1.2535383081456051,-2.4060973512877308
-0.65354498201792466,-0.29050191421104271,-0.34237101451269875,-0.16709541815357223,1.0346461989373592,-0.31169431355553212,0.29938619937586319,0.71548844374080556,1.6679288681696813,1.1872635863563736,0.34351579814215033,-0.70932593728597293,1.6912422753482692,-0.23196742440170193,0.27394338335087604,-0.75785349117307732,1.2400694320227401,0.95967032771239913,-0.80004860386302212,-0.27049140333954491,-2.4583977203660758,1.0598100853413754,1.179344384429845,0.89212073704729478,0.69817641091678895,-0.74552500388910825,-0.44055837114286545,0.54221114050217345,0.22666857868989473,0.36394709327028429,-1.4371338157460103,-0.57520546179274556,-2.3731515074005469,1.4136786208509851,1.1956514688059166,-1.2567151268261096,0.013674691560379273,-0.81731505853910802,0.72528550789799584,0.28904320878016687,2.2828740885118672,-0.75766021729687316,0.32648237836760652,-0.052720944922678134,-1.1569665137376424,1.9829609872532139,0.013494385056002069,-0.081168513304311102,-0.22718224777416673,-0.95466262413809089,0.17464061191660568,-0.55006809229294795,1.3689105772642967,-0.44791427827716063,-2.4147639351362242,2.1822693329592169,0.60736290321274966,0.58887243888959018,0.56226793399216279,0.83659571805903044,0.040838771118476239,0.47085329275331067,-1.1011588094299216,-1.6981084197965288,1.0532764878052616,-1.6574362946038745,0.3806423415592925,0.65692170254879478,-0.46402368049877818,0.42387629578649155,0.25578242805974138,-0.59434823636139855,1.2757893730636773,-0.82242357499267094,0.2185700759979097,0.31661644962944707,0.99168332226196199,-0.13897573865963844,-1.5041778065516955,-1.0912523168254882,1.7958219545473748,-0.75758836624170911,-1.1151306965127434,0.055621336195912738,-0.20062001012442465,-1.4352511447421707,-0.91517954603797869,0.83695239122689347,0.29312331064904773,-0.1096895332417496,0.72632644702526517,-0.70374604537862973,-0.51343532675538262,-0.13357706875554218,1.2825776583135282,-0.92734815010140137,-0.42831380526415247,-1.1515636703271546,-0.64217161966711345,-0.95216444906680064,-2.551648363491188,-1.0186684182478465,-1.3351828274955684,0.42160492169076963,-0.048619399710464785,-1.0082818862480158,1.2214451839935412,-0.37363039638587575,-0.56460420670859579,0.9334261754820129,-0.85769157488055292,-0.62485458395304172,1.6298212305990312,-0.43738783743886367,0.79491207182132961,-0.45533774216254164,-0.88311406816509219,0.67299391388625307,-1.5815668642233613,2.0063669779816315,-0.13315259701352253,-0.195817977356185,0.77272113796701203,1.1225323216658336,-0.13430409164613644,-0.60961924800572964,-1.5754977970326425,1.2078260814254083,-0.0091061136971249089,1.5067383389351738,-0.3113706751354966,-0.60572406621922115,1.7565530019750693,0.83849462461729329,0.93336986215415585,0.083753269071626071,-0.18387554128768793,0.19722145066035321,1.7284044705473964,-1.3559429777605334,-1.849228976819967,3.1242175705852335,0.5680703240768239,-1.5876871800019543,-0.23500279893241538,2.10565730297707,0.39138199496281678,0.86479445044504177,-1.6178476889838014,2.5298485661011245,1.5484134722688125,-1.3171592721107697,-0.63653594909386435,-1.9027392016669522,-1.0222008519798262,0.82962292043445618,-0.65624712811665953,0.7642279763076677,0.56106349575446057,-1.3006793965772148,0.73243418823573903,0.50158299916993621,-0.84498593948138501,-1.6804157462174294,1.3726827034696523,0.81836924683576551,0.8278496923761548,0.053899634323066693,0.99916288126824382,1.0761487572822548,0.66051016463625734,2.2539153944881378,1.7079121673455597,0.12854579916036346,-0.68476022827377436,-0.27787980498715192,1.3633539063808326,1.3743871740031879,0.98883494607834665,-0.20732653671383505,1.4489459638306814,-0.011993789764834372,-1.0082717942320785,0.13108427901955941,-1.1236109217421801,1.6431087275917007,-0.36047576902195688,0.6616834649458796,-0.18296547925211099,1.2039881892190512,0.43525433905867783,-0.028635853802271159,0.28748637905821217,0.63937688765849732,1.2827589450118591,-0.70271539610963751,0.72329684569393715,0.94047645666044943,0.0045052572964046442,0.39554353867939962,-0.4512646697818285,0.51384611664575219,-0.079987002492817483,-0.1628171142904252,0.17535686883474383,-2.0902391686134685,-1.7229175647838257,-0.39775223656313125,0.16892775126718204,0.66851878477247462,-1.6295170897272568,1.0667368009190603,-0.13452532685699306,0.90823870262958606,-1.6032643462332661,1.1898301476454398,0.66914194816641748,0.34075361310287167,-0.4856397292647392,0.49401332988677654,-0.083826516172163024,0.99481670247537335,0.34041125461659427,0.032823037413215433,0.57779482970683449,0.2608533407696294,1.7315743158842576,0.41653748898703902,-0.27389072597863895,-0.49211817970366672,-0.89478571727299117,1.5921269190095344,-0.57672859209794858,-0.29075748721078953,-1.3512309198899448,-0.68011912866318924,-1.5279190756864309,1.7994786080813985,-0.95745710151011421,0.80096918487545254,0.0033519415566934129,-1.041414641486369,-0.7317770649328752,-1.3807246667598001,0.59276622561551995,0.68686447461741629,0.25239599910088323,0.66903346071826097,0.31723095964212805,-1.0072537383853839,-0.31993829044299454,-0.85321814367690263,-0.13835377831370507,-1.4975053424502625,-1.2789312669508455,-0.50284849977910906,-0.6596975137909632,-0.1376141211674819,-1.8609768506236919,-0.93590337638815568,-0.72984322278446678,0.092361181629617914,-0.46629912538025503,-1.0342946834088529,-0.28595435607677239,-0.33496578819704725,0.89666084932730272,0.58063199951317856,-2.3138793269808984,0.65067720269083373,-0.24745032497991509,-1.6101672169717718,0.45804289539674464,-1.2109418335025812,-1.0825372128597188,1.1327686266704251,0.94509513174497639,-0.16976424520240338,0.43654312061811584,-1.031254244993824,-0.83132010776820031,1.2949422230622512,0.29813147703851584,2.3700197388967728,1.0797966124746512,1.0512053859145736,-0.28754628390273518,-2.284242258504062,1.7789574458366986,-0.85510574060939659,-0.38626239995991934,-0.35541858427185224,0.64688102878569009,1.9171711159848794,-0.81226486366012152,-0.8669059585634783,0.14017559317244987,0.35355532831832237,-0.52747745289480064,-1.1579778349720935,-0.053744596844261243,0.78345407277144896,-1.0808782891926167,0.29371731205722751,-0.10610275872531676,-0.96173667339305724,0.14367460821569214,0.19099118835519407,0.54772160241204171,-1.3373291183820948,0.28762327786362857,0.25116756701459853,0.024851206991187123,0.45716647242395236,0.82228550230896313,-0.15563605804269814,1.0276266127983618,0.046599554641340017,-0.528556170891614,0.14118717787700275,-1.8028701563303877,0.64208454309834617,2.4276318698765955,-0.082152212524130269,0.054860069213897737,0.58213891048118238,-0.40390877645675016,-0.38228021026181669,-0.78125756051255413,1.4957209050547398,0.11289359916249661,0.89505317623967806,-0.43376851685676698,-0.085419549951459436,-0.1888182230522949,-0.38512543642034125,0.429924212195262,-0.28506418850090803,0.77124560769623829,1.1142543350352934,0.783594594763101,-0.78386947703723142,-0.97445869212089287,-1.7897340053692854,0.7076012099634239,-1.1026437800788411,0.27649711925468534,0.60561174960077391,-0.10474487610649609,-1.0535751735560146,-0.52604634494749358,0.8111566133992183,-0.41625064331257933,0.53179386343443436,3.1738858578333029,0.69540709797900646,1.3745505816399526,1.494080340553801,-0.40363714098757097,0.88830256873782709,-0.43980534246752945,0.32269017126971522,-0.310386067531634,0.90942080341684406,-0.38325484053606212,-0.036549164277100983,-1.3751705077124423,1.7030999154647373,0.52295461313159597,-1.1683929567682645,0.51438199426123732,-0.77739790815566256,1.1370081639524612,1.1074632253251144,-2.3000490198282884,0.51105886358923003,0.61379144406657793,-0.70694414001189809,-1.4484215522669117,-0.50908906255138253,-0.56720071458753551,0.13832832498667277,0.81104779460504972,1.1083032521596232,0.81696604701406128,1.6308602676255337,-0.11116898581974946,-0.90398114929233164,-1.2910523797680591,-0.085690686779398353,1.1400435094243997,0.42743359818341653,0.30233738603175125,1.4583457313023416,0.76135820317587843,1.2094238792822281,-1.087454406841915,-3.1626129352465453,1.5420686344526742,-0.84187475768467035,1.108208235213634,-0.53703877880977535,0.083979262589293405,-0.78929288116443275,1.2006259438718356,-0.35167407832313752,-1.1933774340368855,0.71672754785287607,2.6810176903520015,0.49752968362843109,-0.58888555106550466,-2.3791510082823861,-0.022673901338060468,0.86557518010126488,0.74370060821672457,1.0840870269172498,0.21901884018502102,-0.73665194807822632,-0.42330590766103315,-0.16860588130952558,-1.557263879616529,-0.36816075067103765,-0.40823522591649036,2.3601191434216493,-1.0853492108366263,-1.4495504237838113,1.8389133646213904,1.1371422268091973,1.140017748043765,-0.4273916747390607,-1.695616148674262,0.9964908645449263,0.84409920224641533,-0.022684401483778139,-0.020303376578865471,-0.29771996773414738,-0.37012186391319157,0.13529366485120242,0.36594008578563281,0.35088483189936753,0.35772972562990613,1.9598227070809433,-0.27512061053237852,0.028653525271687515,-0.081970250663281619,-1.7004668397229454,0.6822472078510331,-1.1021498773247882,0.62585565912899865,-0.052248364162665928,-0.41331771370408404,-1.1257782785960553,0.7595241425006678,0.49509559565169847,0.038398437707136877,-0.11074259612772187,-0.94367010317721556,-0.22947225277154185,0.26684500991367999,0.29816991182879493,0.99773074605120704,0.19692392782635643,0.59061686919563428,0.4231369305936567,0.72015056143903511,0.41603843530209222,-0.91353635745169093,-1.8034019075839594,0.10565456398663296,0.11568719075450967,0.4377897279800379,0.87002338866273998,0.2678657110832926,0.37417559698912517,-2.2734585554591864,0.35779275585690562,1.6758197423791399,2.4053303688801724,-0.96727600692183691,1.0370825907890076,-1.3880684659978528,0.1302522111068036,1.1129712768218039,0.38935753391031491,2.2556505991498605,-0.48349633344287601,-1.0167570772194228,-0.70659155714903621,0.56975686861719643,-0.66026636361691537,-1.6886085079266502,0.94357841356531036,1.0872876955116539,0.88449351054059511,0.33583136042865264,0.71642802135004124,0.27839567618020167,0.55204387164102153,0.087273384696252398,2.0453575254548917
0.7989043868043364,-1.355468634179209,0.54782366712748287,-1.0239762103064398,0.7850925744568058,-0.16733396330038833,0.1438072719337764,0.68350351171031254,0.32002207024249785,-0.57552813899862376,0.23936001002720741,1.0899405597382203,-0.75524532060448035,-0.54885116062224182,-0.23221203727138526,0.65927291766057228,-0.28493330300579706,-0.45535172002160562,-1.2976099231661167,-2.2014901868076628,-0.98315171571933535,0.061266579268602787,-2.4491156290269345,2.2951804071755673,-1.4745800440489001,-1.0876480528522281,-1.3993496882225724,0.027790556186102038,-1.1664808694342383,-0.69538500645311085,-0.26317233138890594,0.16556628511725252,0.88202277176445676,-1.0862412072818588,0.12231438730342373,0.22512960218627412,0.77697539148029537,-1.8528748416543066,-2.6633801790343941,-0.65169543227144999,-0.33625211654701631,2.8687717659057497,0.29216079369116615,-0.23050806795524206,0.24379388361535104,-1.188722751499381,-0.56698178369208807,-2.3413928246174343,-1.1964067857485428,-0.72781904925147001,2.4513385044787279,0.11728464129647398,-1.8678996111039479,0.25881628596843076,1.0561071321331401,0.38675462975117592,-2.1115832609222793,1.5360171262538234,0.49509462459503861,0.90384514043162156,0.60200659938968992,-0.37587562277938791,0.64045591808250801,-0.7060990928204135,-1.034663158840641,0.42668235460509679,0.57504184153548954,-0.8908254024191129,-1.4592913793421625,0.51085304172683421,-1.81465833366051,-1.8436174536851559,-0.07850159550311793,1.144406897436272,0.216290287600374,-0.80104660172349473,-0.49980542408746625,-0.15470420528453863,-1.0332998368531985,-0.04206584428964924,-0.097929390091951382,0.43193881426057495,0.378893242216987,0.49778249514695899,0.48293161406753388,-0.85537169869844243,-0.020402748960841786,0.80387910505883942,-0.55086474134412655,0.5585305654010434,-0.028886662803429775,0.52223068879263468,0.24705978200467826,-0.067292859667004837,-0.53196809194039774,2.0103558062631848,-1.1257182847794305,1.0480288086912537,-1.751172713810357,-0.084396900515229037,-0.48710792043824958,0.96781536254989031,0.28891993391448639,1.4645381103868624,0.23522787017869198,-0.23678530490283139,0.57791908538404468,1.7913590750636024,-0.21498160133058652,0.11385665469774578,-0.089205926174934266,-2.0753028677770136,-0.45104304004869711,1.4020043008596765,-0.63850551114033116,0.54625087928479277,1.1197252574270751,0.097806588377567269,0.15382446865883967,0.50330322233752023,-0.23327674078860178,-0.33112704466057186,-0.058098946681449014,-0.57591698849149853,-1.2124990564863736,-0.62694967039634975,0.38917819716885937,-1.2725685251137535,1.2833907402238665,1.3372370851552884,-0.15601185693158573,-0.39389922359463769,0.18829739801025283,1.4315915356726432,-0.68901289491589957,0.78669342339916914,-0.13039368910215809,-0.52007048705769299,1.9952533254930187,2.0946398963612771,-0.1744630981700456,-0.36937622136321546,-0.36457045310793806,-0.46863131554616061,0.92089292981004567,-0.31617044758736074,0.15141655949758367,-0.40706212727490199,-0.42060668515585514,0.14726795892554359,0.98290639299497751,0.44418112483511052,-0.16072064215388787,-1.8427367433079449,2.4482465129813482,-2.3766501418017967,0.27684981692294142,-1.7536903382952285,0.78275327278388707,-0.85471607064270816,-1.4231055662028862,-0.33008738848704666,0.13391074270548156,0.49693015887008563,-0.94616913658596768,-1.7109749903733955,-1.2176731137102061,0.19780009548997818,-0.69108680361807306,2.2759097497071896,0.038565603495315133,-1.2342143181626224,-1.3804610959514214,0.52684878161798332,-2.1542136531154932,0.58340153566650554,-1.6990074257190753,-1.5179786276410439,1.3491869782699863,-1.3953335134405749,-0.55684289947793475,-0.54068105318360415,-2.0470248073088397,0.84962244123404451,0.75359004482186465,0.33818460376772391,0.86223630307955479,-2.495255423910419,-0.36392402325241191,-1.4474641028854003,2.0293801837312184,0.51609116733461247,2.1756025487405171,0.67132926812050364,-0.97527625527850714,-1.6629832995688734,0.15462887385935623,-1.1996457600233519,0.65129006452022675,-0.37663533812485944,-1.6931006561592477,-0.10865839527738642,-0.60513034307041524,-0.57774387228372448,0.83861673646946644,-0.64939326976601264,-2.325631042318228,-0.75692239762725588,-0.0070757173082479988,-1.4031368804002524,0.47041668102678946,0.13589717378325297,-0.66576722877099281,0.92849406058170436,0.038388282591968019,-2.8750242743576631,1.3012498453167596,-1.6536886832925821,-1.1636498542535856,-0.6666800609096265,1.2878691789308045,0.12582132972734322,1.6753573778420505,-1.174236585123996,-0.035275456951393773,0.50586845708983441,-0.8014075940750407,0.66919539719360099,-1.7468507791495194,0.27801257571133814,-1.0231197605845641,0.45576987354028825,-0.87641418516428471,1.8509196648660384,-0.30830480946420513,-0.41277563594545308,-0.69859606785972472,-1.8593158103272842,-0.35801359825546419,-0.43453943445621784,-0.17886763591136104,1.3543509093025161,0.27521778404086678,-0.77939043288671095,0.48937076589735568,-0.57599379418176511,-1.4030035534653482,2.5313354933883385,-1.3144029716145236,-0.6176715981523796,1.113499042791704,1.7381924606694792,0.49691516430832877,1.3389404381525336,-2.0436372123854354,-1.9825780522023346,0.11138400317032039,0.7828001102831833,1.960288287535922,-0.50379786948483196,-1.1430442306123743,-0.48597646149956641,-0.29000449768776859,1.6488219017208321,-0.22746494154100022,-0.0035702543486310656,-0.83698153145456045,-0.24599078624383303,-0.55096299839395757,-0.85930138232312392,0.28752397640643912,0.86875462156782068,2.4230554059087899,-0.33844131761881252,0.062987288688788293,1.2420599421144563,0.92650423891240008,-0.63956631119149221,0.62576246821531689,-1.0499385910803822,-1.6874547443543664,1.245109686176306,0.25623141445104208,-1.1113989394502075,0.3300921095182176,1.1679640731156342,0.081220753774748272,0.61095453383918663,-0.66032308148240304,1.0318802183781091,-0.45561223925338162,0.91789319048998674,-0.73208576622624089,0.63218909907255694,1.8083898041270443,1.803550103849046,0.86506437795661717,0.30587682314409842,-1.063314517122804,1.5549336651846111,-2.1511158255374156,0.23428334526665662,0.35167476924254498,-0.011291115744765427,0.72512324176831344,0.83845390180305501,-1.5891115219058087,-0.1096723459289055,0.2960085784600604,1.437783416618043,0.40831413633139108,0.22106036494910375,1.2120233180232853,-0.51768421631858585,-0.42384158015364742,-1.2797242225335017,0.12271936875689168,-0.70559984838659751,1.9776818544779928,1.5686943126277857,-0.076070787003798393,0.90334726753373296,0.97373832338324773,-0.99106061679507362,-0.64966150617808782,1.7820504955443399,2.0668419338359207,1.1509986008922732,-0.73370479153256751,-1.4424481942599321,1.4780257256690068,0.43752497983806449,-1.515838497924757,1.0853081437666663,-0.58834946130269061,0.56561731703413087,-0.9780429899435229,0.035719190879373447,1.3089713965224827,1.5882277230151298,-0.66651904588259647,0.07963562368996048,0.79259949163426513,-0.65432975569065766,-0.81076884161201102,1.0586595375509513,0.4042307663190125,-0.70172543492972395,0.77538457614107081,-0.98190704261068174,-1.5625921939157998,0.75105601547372047,0.32245891490135481,-1.1077924109408748,-0.030786560578663157,-0.37768758248675061,0.23224970296565572,0.61610883862885024,0.79794724747852774,0.047283073091820262,0.38404865610461397,0.29412983281001936,1.4081562161981269,0.15350619508069777,-0.91439174996922412,-0.025694207637260765,-0.53130037899459226,-0.22227623106661576,-0.71669203392649139,1.6818012884684264,-0.27822595833620739,0.9784786950130655,0.48683935636385745,-2.1386258653740873,0.78045751640273775,-2.0207666012209575,-0.048381470097497811,1.0125035455974476,-0.88892189607411964,0.94555605084109151,0.50566903435852018,1.2099827766306799,1.4975350015960982,0.25691502445200542,0.43707056974830166,0.33012304245026075,-0.12428260868146551,-1.6116962401858153,0.059243113183096309,-0.87527776290956094,1.4671485873648717,-0.48806258323458662,0.82078666751330831,1.4509208622404994,0.5872394615096177,0.69783193883321482,-0.57472792443662657,0.34314275800163535,0.11826241392074373,-1.9957235893129086,-1.019459077534322,0.41519160505448183,-3.0189887461713072,-0.90356829595080401,1.0020907131066368,-2.0903631945941865,0.25028620287499115,-0.78869357756998992,2.0596205490657287,-0.57485779092846878,0.30682505695231926,0.22223389924470058,0.79764963900484209,0.6301184672588318,0.79859268539748973,1.2400139740357861,0.54378958440335967,-0.77081607227504512,0.0067526011523592819,-0.15994574165762207,0.21828278449470562,0.9457998930023902,0.24259340884425848,0.43136040763737488,-0.400104192518626,-2.1968940924784977,-1.2133182238825651,-1.4095096842801615,0.12319883505981817,0.56545754093861267,1.0453032291634983,1.3255130877354602,1.7370459443342614,0.1828171401176098,2.4571949330782412,-1.4860376284032131,-1.3007640944110694,-1.1366187876235694,0.38472715306210831,-0.58736099019472732,0.77373271657896914,1.225460192829199,-1.2178108406739878,0.085618767673138876,0.24518961011708171,-1.7134721079065249,-0.49543179486801092,-0.93204137586118596,0.96742891380889373,1.513081937448624,-0.57959722534488012,1.4688484194199503,-0.71766675391023549,-0.86393532648638161,0.79157564456453633,-0.056984522770321344,0.23887979053942238,0.076015414952525326,1.0093182163950036,-0.80572609154220243,-1.5684754836016916,-0.013222652949497943,0.15999676942985155,-1.4235143787196642,-1.6514492161032768,-0.38603591967689638,0.34395341027678522,-1.2059184899782673,0.99435939926090489,0.36829685619788077,1.3562304492056632,-0.11273073539262217,-1.0313976714070401,-0.11871989250807538,1.9265504225861108,-1.1986092124640357,0.098444127178209676,1.032325471500033,-2.1378055103695091,-0.03134503240680267,0.67140135279452084,-0.32767916264942498,-0.22461564629760267,0.78322274387909463,0.61025372486473128,-0.09081009012702175,0.59589606352845559,1.7419843274418849,-0.78807849899155524,-0.34063159032576851,0.94729408093626699,1.2319983922702515,0.3028967567174452,0.70459493351755953,1.5441287919741291,-0.47248850007022419,-0.59315537007398289,0.86871244792450419,-0.52285663682162919,-0.92096333901684402
-0.55523909075212086,0.69313362114157073,0.073884218755529849,-0.90405715151301491,-0.59631842452164174,0.91918851035050708,-0.21613552298811595,-0.98831854673337993,-1.032057024238253,0.66643217460013182,0.20660600309534199,-0.4967659931440282,-0.73810501167933795,2.2769608396517187,0.17317451550704088,-0.37050318843922192,-0.019110932465464449,-2.8977525360397314,1.7805290515338257,-0.29287956435784829,1.5982603082271689,1.603695936507834,0.86474068985134522,0.97565927901774518,0.71702342543492681,0.87902073489714327,0.25846253174739897,-1.1645097643654843,-1.1361094727157139,-0.91361886994469288,2.2110043350668254,-1.5177887717397773,0.22406738194899997,-0.87198855536519659,1.1390628353835404,0.99445118278211264,-1.4249180302324334,0.17938027460609324,-1.351980722977512,-1.6957581648291802,0.55910049064346345,-0.35970784928928295,-1.3012648193312732,-1.053943303021319,-1.4896253294791435,2.7489496131565501,0.12480617722640934,1.6400753001776771,2.682813210767701,-0.46756208068929345,-0.16770594380811829,-0.33990282548331535,-0.68902867674293122,0.8107850889525553,-0.71247226479034109,1.6521044346109832,0.18492337021920266,-0.1518290922628926,0.14158757122600371,1.3048793662654428,0.23342495329968499,-0.42711069820740294,1.4565120883546394,-1.3448195228399424,0.93981971874351822,0.59219981595867144,0.56685736597461034,0.50693181096772355,0.33838169467684964,-0.49722137483401768,-0.21605455596883755,-0.44805488277260563,-0.62303394288254399,-0.64493091488924559,0.46074577748710699,-0.75155860127942242,-0.61394368139019118,0.96822386453714615,-0.9267740675351106,0.27127541726812215,-2.075306373141641,0.38696422668354574,1.1904331797467922,0.5855866140976641,1.0390420111272647,-0.95761584060084559,-0.45050411192517825,-0.73876046864539158,2.0890354695686129,-0.70553971242298197,0.99631754539321582,0.61982586353499414,0.00060165590028683183,-0.81389261674867863,0.1646175868921563,-1.3051246788176369,-0.26661958747004444,0.31797610398016235,-0.33606058566387242,-2.1231361123487429,-0.20488299726547268,1.2884354210836577,-0.53903682702671818,0.28747082499455057,-0.060434724214309649,0.39075524824330365,1.742383403688142,-0.63111234984733833,0.50423647435152408,-1.5462915513402435,0.22224907218485085,-0.39642432026631624,0.57969142034687127,1.3582926098454864,0.98672618014647417,0.1351783950946685,-0.062041178080573668,-0.57729275377717459,1.5327455509485346,0.75725496551624427,-0.63448356849173693,1.0026209547753304,2.1797525932248401,-0.27756973451012024,1.3849329300338196,-1.5417203522074374,-0.088018514019605656,1.356151899487299,-0.7327803393233292,-0.75176020009855937,-0.60682456094554138,0.14287748227105393,0.2948809622017069,-1.3020244926908968,3.2295645946282097,-0.22074258070704011,-0.76890958955048561,-0.079753988245862856,0.8690969216261375,0.34838572839745319,-0.73590558628851677,-0.3679460325787266,1.5784046619035164,-1.7435430380708838,-0.70328008073166426,0.27736797160714144,0.47523786140159985,-0.051588360750804023,0.57455723087862898,-1.0615872076878146,0.1252348036158788,0.055340936671242798,0.49698647626260095,-0.28855128320645002,-0.31215263475847704,-0.078613062325171762,0.24523416309927068,1.135949098744945,0.6259987436959864,1.8133887653345151,-1.7442751848816809,1.2333912055272442,-0.37216825399003461,0.94778335649006529,0.75810806350353688,0.046156062460508449,-1.5438088731791997,-0.27705091178573898,-1.944753467376191,-1.4933732847022783,-0.064238040238741911,0.6487221351477126,-1.505334975679061,-0.92189765960435233,-1.4598658914155982,0.48811999034840448,-1.5665577608332302,-0.41192568595232659,0.18963437088082455,-0.84105405891008056,-0.20666408629428848,0.95444841609309294,-0.12432906108710123,1.3302009622597541,1.2687449379993916,-2.2068686579135819,-0.24423109022982759,0.64750780105443717,-0.70918642747192928,1.1867478348793477,1.5170924299258663,-0.76746551380821848,-0.13998960289572265,-0.93445329042876868,-0.96554686214547636,-0.94530341938674023,1.5380471533545672,4.9471445921104378,0.87488994214537275,0.8861514264311855,-0.63818357676406035,0.47834989724140381,1.0559269608430402,-1.2256328124974942,1.6326581611845381,0.48159259235124097,2.0530007601676812,-0.22331863132107643,-0.031214133791963694,1.5062979499336524,0.54840258696545807,0.58353538801755145,0.181901517042621,0.83338032457477296,1.2055244911235525,-0.35087860203150167,1.0542485516952376,1.3871940945943164,-2.0343747713581508,-0.91303529292243613,0.19478195704970916,-1.0756486651798367,-0.82232590990485788,0.70386905479578743,2.4259660223104591,0.69955193811714533,-0.091498202470078768,-0.54389499438283684,-0.20234697167575377,-0.39639467277026436,0.097235078757591964,0.62911332945800191,-0.30958386621196482,-0.39687968003537999,-0.67164011666439793,1.3647039341776752,0.33663351668584174,-1.0128314563478324,-0.30629680865857395,-0.24211753824670687,1.1429272309437764,-1.0288905108082516,-1.3470653998967552,-0.2315965306357875,1.39294231908873,0.5470862518581322,-2.0464780670019169,-1.1705497173029109,-1.5718407018010139,1.9512335546372961,-1.9194592446643708,1.4542048892240653,0.67738109976636263,-1.3066340622221633,-1.7354224673974952,-1.2011985925801754,0.22459838562243661,0.62262687867578936,0.079705125399037347,-0.48447657908839808,1.3035903273762648,0.17212007677671792,0.91192136871977558,0.23424765578865617,2.2024670138033735,-0.17143828727557542,1.6019841946627809,0.20883422967879217,0.70271579684591023,0.30721359643947188,1.2959813267326663,0.13947621064274227,0.35722320543072944,0.43182252804525617,0.94303611037016077,-0.77889642551383287,0.46151615031172294,1.0570951136611724,-0.26709722169054695,-0.71114579839326908,0.69113310833699315,0.026183450210429438,2.0958425809446535,0.82765754043312234,-0.53209664831595826,0.094948206893845033,-0.026738408628902224,-1.3063415475345512,-0.95998650227874882,0.81170276101745154,-0.65376851703614947,0.25266033955192968,1.6781027496968386,0.60577673021773726,-0.34062870540729312,0.80068969074448337,-2.1648022360392623,-0.17629425276044472,-0.54708020642046262,0.55093532427661218,-0.93468538338626594,0.060561310990613917,-0.35954467916760446,-0.20609200324706406,-0.43428919695837548,0.78362450912583503,-0.13188926285642552,0.018927114798399147,-0.13682692973999008,-1.0343180537468903,-2.3794513358361389,0.51099507836619995,2.1528784311083169,-0.21151470281736431,0.52921853162641275,0.89960328937217116,-0.83482562922667092,0.19437002965003145,-1.3342408169248123,0.18415143052499761,1.9748263562194937,-0.24287112562989413,-1.2208381064885232,2.040747994468624,-0.32314001216878796,-3.3591991833268189,1.3354821945158006,-1.0987490941130091,-0.64182875564796216,1.0104604553201892,-0.95445794564241226,-0.74439701836343042,-0.82563800323092906,0.42299189102668228,1.1075340447386377,0.42583917524759779,-1.9344653288906408,-0.86670599816224247,-0.68255102716700411,-1.1267239278199359,2.1425464595240391,0.25934174032395624,-0.4963882878985213,0.14911034814483731,0.68028956403000873,1.3437734874160661,-0.90666324575730606,0.14555806434730309,-0.18563485829938417,0.73935869921469333,2.7656977234328219,1.1337214075926776,-1.0719112915365672,0.78922812448820645,-0.5419307783869346,0.28467720442190092,-1.1944216461288937,-0.3745628318267587,0.49071903318434495,0.44062441656928725,0.70333966963126981,0.15890220344353476,1.1795821570327445,0.71613245326241015,-0.65715555051338626,-0.042063033375660003,0.034864173315128762,-0.60722260153601137,-1.4325642630323587,1.0088740389152553,0.0098739548880399305,-1.1735787831510627,-0.17277341094047785,-0.19126339081972155,-0.86982362698790661,0.4035324895270237,0.68349629400823519,-1.0754357055413171,-0.34146044734885461,-0.02285435317788917,-1.2355590360648403,0.028223345778637783,0.71217670672225708,1.2911883247618157,0.94206295954876418,-2.4394208786275868,-0.010355091503613377,0.20531488455088134,-0.40072969705417261,0.058286250098601271,-0.40827645283334463,-1.8359002260185957,0.72754202158945269,-0.093915310832592427,-0.63612885730937474,0.8608655842188585,-1.0546856365166519,-1.2329270192451121,0.21188633279604135,-0.98752275202307904,0.78471793619455898,-1.6674961415243141,0.45255739015994872,-0.34628212654376911,1.028127507228803,0.69090014853222714,0.13228407477548798,2.5805360413848293,-0.024784574154505624,0.63809148702515506,-0.026681360456912884,-0.26183965777501272,-0.46838227827819456,-0.14910927584708819,-0.022295898424585806,0.2177571958681678,-2.1696051173657294,-1.9094133328485321,-2.6943215705336354,-0.22708394983572186,-0.32510044875569388,1.6898192059321941,-0.71568605184264755,-0.57460104867364692,-0.092944010059222634,1.6539416246941989,1.7348778973533889,1.3132273183898462,0.3893611640693514,-0.50744160365110857,-0.78554372334719369,-1.0674895888237839,-0.49782061837365027,-1.370013848565639,0.22239205332909656,0.49515320421185788,1.129732086529591,0.93775847839340376,0.99134910236121843,0.66272776427184443,-0.85254233630037912,0.3874745198646331,0.095840357230291037,0.40299625042173903,0.13440045107981852,0.1554506739479096,0.91028272820995826,0.59890189257449855,0.022697102032215668,-0.38802852057386233,1.0211230551827335,-1.8707082521415592,-1.1853221648089003,-1.0478596372317981,-0.87015773602565094,-0.40819801041665793,0.12874561516416289,0.72951233900808488,1.4130435453627284,-0.19196473806771089,-0.74692148374411493,-0.53219386824363124,-0.20246402194623003,0.036521969345834147,-1.4159257908371248,-1.0560794387802268,-2.0142780573198538,1.4762564918511283,-0.29991566148908783,-0.47108195145999354,2.1693136322419631,-0.57380041217212518,1.3320276739382,0.50087422259395253,-0.25453919441713796,-1.5494758078852646,-0.6323444835216997,0.24536871188845816,-0.37904254228809131,0.85336788966391586,-1.2727936528365709,-0.35995863775468301,-2.4333759862987416,-0.97971698293368947,-0.11667572196740407,-0.21273714120177623,-0.96122473922905982,0.013123457962225082,1.5184026268169217,-1.0702153844027327,-1.5069973911830976,-0.0098162183210030712,-1.2246876120800378,-0.64420370313188313,-1.1088366839929227,-0.75988701376126266,-0.61323961682922579,-1.2600121490385165,0.42430685462713669,-1.1057672886617185
1.233347283019204,-1.5964147903889858,0.27398088139083093,0.89145911781074827,0.33237691909019978,0.021996323970873949,0.15921320661820149,-0.22114943964820513,-1.7543204538642609,1.3502208525498796,-0.22702758096891051,-0.51488659403888215,0.072949622616437476,-0.85645305212361345,-0.13387691332543972,-0.2613526995664901,-0.29014090856150609,-0.64513753435538423,0.31866082740271889,-0.20401569865850674,0.45636305263314381,-0.19120497465201611,1.086692334269419,0.47921147624185695,-0.47069632023229724,-1.4678124423249481,-1.296214085335446,-2.1298873900264383,-0.05482019761253959,2.0056214860330503,0.15773570502923481,-0.75572526502168869,-0.30495154470282893,-0.55005372495606464,0.23591048192583342,1.3650356727642154,0.47638636890296493,0.72589436731461043,0.024549321803493247,2.2098841677422469,0.33734686549209481,-0.34880451073651192,0.23308412910308038,-2.2638337009124152,0.14778990309314932,-0.1962977372179591,0.090678234421878209,-0.49619925902162421,-0.96004266843957942,-0.22536695924408992,-1.1183612232834204,-0.42301642263520289,-0.62873251152349185,-0.43965293831147007,0.43680752943117457,-0.72197026939035536,-0.1802595809951836,-0.17771537331091836,1.0952181028407229,-0.67376671527699805,-0.40931006439831452,-0.64252356122094678,-0.51228341486886386,0.23892817380051157,1.3748505550344234,-1.7579968287152743,0.21849118416910046,0.84995068455577649,-0.26686326806848276,-0.52583011720466599,2.0718227349139551,2.1004412630983844,-0.047196180265919901,-1.3440203900234322,1.6065214451855463,-1.1067851303298675,-0.054350036680097177,-0.46612804777434014,0.13217992367706494,-0.88785797991407467,-0.75457126433280231,1.9391264003834847,0.4807445172632977,1.1240097507142026,-1.6635703205449923,-0.39919042496015955,0.92081580983364186,0.70181442849450948,2.0229996406974631,-0.22862671987207045,0.49147448405362909,1.0134326927769313,-0.48568278931429715,-0.57811566121325908,-0.79770506954790743,2.1815055381785813,-2.17081561648101,-0.93433015016845633,0.61083048215974112,-0.89525089279692405,-0.57271758717670895,0.44264418679943573,1.2526848201284737,0.13197874591309613,-0.60822745385477839,-0.55105502556298314,0.53058496514349307,-0.29459625955885804,0.49343454233506368,-1.3052082112321193,-0.10366751880270961,-1.8165481686375724,0.28450826427070913,0.37285599596879609,0.71839743049079074,-0.98475396928795944,-0.12109283679180624,-0.085802778950131886,0.60575145908679362,0.58105795160658658,-0.50677276158358131,-0.2146981765325808,0.31173947543997266,0.99042443135463054,-0.64726662300200744,-0.76296774793364386,-0.19381531862729393,-2.0864540332070378,-0.41881582030927206,0.48797935269721338,0.048669498339613572,-1.7877892824436825,0.85853946611542686,-0.24348150054875856,-0.10334967692589975,-1.2168018426396585,-0.76616219150354492,-0.46994512014445794,-1.0783422139830385,0.63740218085849876,0.082090973585383933,-2.6014058821354804,-0.94249527782268461,-1.4538838344086191,-2.1924579957473518,0.26515840096597559,0.25641383619590968,-0.20882735231347668,-0.074546744861737679,-0.80674626386322823,2.5149516750130552,0.14535532375648633,1.4693499604648035,-0.27026318157670948,0.46417036312781235,1.0234206136134913,0.070215292866749587,0.33255988553581672,0.75276206486303965,-1.6606367719589836,0.51088929906463476,-1.3329258164704076,0.17113910710268193,-1.0002626442392928,-3.3737183721994084,-1.7585408251739401,-0.37039650803533714,0.20538576675979786,2.2421746134961409,-0.30172255306768242,1.6607205145181994,-0.54445515370757303,-0.43711802765696345,0.056505030635160443,-0.72226317880838109,-0.56044189986100701,0.24017127716985853,0.34392775567916573,0.86340759097870745,-0.47856640539177248,1.6634347856050282,-0.37031370672630765,-2.267604932426269,0.2340762329534268,1.3027789214014898,-0.76503393523967533,-1.2618832283059145,-0.9740931044951292,0.77591524313251015,-2.5692857415005554,-0.63697376944879813,0.2119732935163581,-0.64798950210095119,0.31055226095796445,-1.094899585928726,0.42763902151950545,0.020309732220988863,0.39999620842380129,0.56937372290786126,0.98987237382529014,0.79639895866970078,1.2282748932346079,0.75747510597633028,0.19181217508305426,-0.90065592336628697,-0.16329863826701088,-0.64735368187560538,-0.57971595256565278,-0.80060398781172526,1.3695473496441153,-1.0336880556274695,-1.5160110713001349,-0.24294982028141998,-1.2933645254527621,1.3231402089614179,-0.54716209365609703,0.02232811416570691,-0.36924856400575662,-0.50155558278076884,-0.28737250610938209,0.16807885926024355,-0.50320154823245244,0.28101193252274848,-0.44919384263973844,-1.806984331204692,-0.43240479827593109,0.032956361219199974,0.043284480458114706,0.86748575646255466,-0.24543762962391111,-0.69604241024826374,-1.3114604705441917,1.1126279301615485,1.4182449900324419,0.2231420483239831,-1.780643631080014,-1.6671200489808551,-0.8795162979878941,1.0200547207803274,-0.85994263132310755,-0.67748303899322737,-1.4117442878701012,1.4749968697372244,-0.17367339012065952,-0.0085397870105880548,-1.335263610595316,-0.86350404827993443,-0.69980672731437044,1.3153245030771477,0.55821066452080292,1.2195029908857273,1.3399542549158141,-0.21768056958240226,-0.46048007406535507,-1.1301756761737982,0.25352677756082248,0.29709443804611424,-0.19444794324482656,0.62427657563703509,0.49942247920031108,-1.2988233134631557,0.30745353541006731,1.0531239943081159,0.87633319414628985,0.080109192678148936,-0.86623563671203518,-0.088845909520991653,1.8180895739474128,0.86463669949226662,-0.15487560122290819,-0.42124453572118931,0.0021844604720655256,-0.29466489473016322,1.5975888113912275,1.1565028732721632,0.031913272597324953,2.1567300787724477,-2.5261934111009459,0.72508269902333511,-1.5798967986178225,-0.28962160988639402,-0.38056397550596471,-0.24316848931312626,0.74656001917381298,-0.26160312124672797,0.43955464702478642,0.99111537883911471,-0.9689684247184448,1.5840696488405388,1.3459177376232745,1.056287993365137,0.57428829630330669,1.1309614815913192,0.67236241112514838,-0.8643449206206002,0.59739808540918837,-0.60769357105300315,-0.35378126069420346,-0.42706575863330376,-0.73793108163846033,-0.75988876188309828,-0.75301569448133066,-1.5688170221893447,-0.59353590752660867,-0.0063584207987413023,0.38991309161795301,-0.8825905841105357,0.82324345552787526,0.54330657289903694,1.2824742102224527,1.4392684243330389,1.0058377863850612,1.0449351788248233,0.27808444332645132,1.7824487304839005,-0.7807179034090006,1.2331835733416041,0.72204192209210816,1.3480695074298663,-0.97976336747036508,0.24614577869251475,-0.83350619077291599,-0.955587923584444,0.074613289692866888,0.84762879411543079,1.8892229822206046,-0.1550388574936874,0.23034640266878259,1.5439772974037855,0.31722573378287183,-0.61768871175091644,-1.1865560265907118,1.0716729018663007,2.1431722226576002,-1.3501597965066234,-0.34537871630005906,-1.659012600245781,1.0575852055920578,0.23198886892407358,0.073970123935462234,0.32173325406657227,-0.56320125581845959,0.18912899909931349,-0.0034298395513000825,-1.1869462399720552,-1.0316154496894787,0.60570176198295467,0.38410747178160454,0.71411714137840743,-0.66758257454588366,0.26018813482176728,1.9745873995513183,0.69226102452354366,-0.22160633863818727,0.31456258462656778,1.8010617395564315,-0.67404273485031985,-0.44992388032501873,-0.21533986741199795,-0.32408248309014398,0.3039857069159046,-1.8469357071823331,-0.14026876660324741,1.0178303353087217,0.42589846507365303,-0.55127507928350394,-0.48237202001179935,-0.81859138865666359,-0.61678932312190926,-0.721999849199354,0.36680383075045919,0.091332835821221758,-0.80149022900907652,1.3445795034389285,1.7584833875415897,0.11072680239383137,-1.0938219781634622,-0.0066884235632276232,-2.2169318856487021,-1.2237635469923229,0.16096093808169165,-0.79338144110053921,-1.6802760708320958,0.25531657738253555,-0.079185063033729755,0.80172167299996966,1.698436144826134,0.40703969241498311,-1.1947178252112944,-0.36079662291563797,1.1140370810439961,-0.95278229467549802,1.2238440857112656,-1.0898243752960455,0.50176339255372115,-1.2828728554971494,0.3243574339726536,-0.54116934393914629,-0.57027661186400247,0.43697824529592882,2.1003303218083227,0.61394839838815041,0.088882200605498757,1.4096091696960897,0.39282698644369479,0.16763736000836391,0.69482632660008348,-0.31121849607008178,0.14103947096180861,0.42538696519725988,2.7228859738074811,0.5809892824659969,0.94105029388721795,-1.4872249189834876,0.54937937441565132,0.81087681460256211,-1.5849493639073891,0.32616763210088473,0.28308312166436633,0.56443195379869315,-0.62079533756787875,-0.32130040017686873,0.90233338567579158,-1.4534935667462039,0.062244426226350701,-0.84380696376212261,0.93867652507877974,-0.62135956715371288,-0.5516038085033953,-0.019772488703668711,-1.5458830713903258,-1.5388664920701542,0.70630473119862913,0.38719066766868515,0.13758786327882197,0.68819453272109965,-0.088108585862988156,-0.8740236033019263,-1.8123772551887436,0.45620001309785296,0.91658819397270164,1.126755877081608,0.23673731264659498,0.85972724083785801,-0.44730635014711867,-2.1190429337730898,0.73096615383396235,0.10750952050057926,-0.39343769762364805,-0.90042301291156157,0.26857036129214801,-0.33323787784152858,-0.44022980090631203,-0.55347092245891205,0.40240681360488484,0.32219362670774693,0.29854717079899878,2.0075938584658921,-0.23944635726352004,-0.3134186935996891,0.15450844057244476,0.4186074837837731,2.1703166228993105,-0.13973027096652074,0.32006274024813985,0.66905996029115677,0.22492356868951821,1.4395647540249956,-2.6908670300551054,1.239025345030182,0.41031723974252227,-0.3853231127998703,1.0812059091523929,2.5162401725112975,-1.2933504591755114,-0.18244840335698928,1.063857184634845,1.7240035212247726,0.39482302701177774,0.53561315050086145,-2.2870041532876595,0.25109287568990668,-2.3177052667478102,-1.1782719700966187,0.53481260636382344,-1.1803495717559285,-0.90178209599901027,-0.90769640103553895,0.88355550969107621,-0.20975750218438038,0.074561176052494793,-0.53729844678755267,-2.446044602224303,0.52337364247969786,0.87744425506606638,0.32924219985920716,0.99410696330766657,-1.7113338073692246,-3.3468922014852289,0.43908103255051362
0.21148811727507669,-0.93113574199631255,0.92924690229632678,0.27486449461512413,-0.01325130639213532,0.15894649685500295,0.21691264785693962,0.27901079748184038,0.87405609752671465,-0.10554813845334678,1.3993060206167807,1.3062981611935869,-1.0985182890078105,0.39506474067110586,1.0915406054617898,-0.49572646894131356,-0.058576050077002083,-0.070650578405402231,0.34022747184654406,-0.96722561289660369,-0.53955778122807874,1.7546477742899298,-0.10354737885870739,-0.1888713399860257,0.068132891056165393,-0.75644116173479936,2.8153096208254311,0.47867975233485133,0.99679971060339156,-1.4744272641834339,0.23312570280773615,-1.7437429361608501,-0.9166089383718794,1.3355914217176079,-0.18449133840832332,1.085737888012259,0.26269936759778811,0.89905692138663573,0.66103911557076933,-0.99456964701699979,-0.15999758429105063,1.274251409111046,-0.68311879960665622,-0.44954172094132827,-0.65758206824935328,-1.78391029448087,1.2492607252573971,1.0244719075259203,-0.32885931584836542,-1.3368209197311642,1.2397081828957421,-1.3214230827785809,0.76586057988546952,-1.0800257234251056,-0.62639063083193636,-0.3218552183508453,0.14357594371311708,-0.87682628056402334,-0.078944811897954326,-1.0767288834951387,1.8661081355390294,-0.73752427928279995,1.174736912186934,-1.2040131447021221,0.59436775565503019,-0.34683877503835453,-0.65842098874936683,-0.4025413133431533,1.4794053189606484,0.91371248864865839,0.67852982284342267,0.43451394305200858,1.879198156327621,1.2250118204123199,1.1046292850805528,-2.0020250102795796,-0.12559288144560371,0.53397154975225458,-2.107289480449853,0.23254151761943814,0.95506639529422444,-0.4385662223999503,-1.1250335907717912,-0.05981108571159173,-0.35153599506259225,-0.97408701207573878,-0.60705889748309305,-0.39614749942629102,-0.19159573393916199,0.81980486244061423,-0.017384728227075298,-1.085091276716508,-0.47072603036141814,0.93460408309140064,1.2060711934481216,0.92677408684456652,-0.24510056553158741,-0.55079770678433093,-1.6303635223173674,1.3497226246963474,0.89925275907333857,-0.50963878864210788,-1.3376463324222785,0.34927571229862669,1.7930709228349202,-0.56756049728397384,0.39092184976400629,1.2924110993984865,-0.095770170721792863,-0.11483755899325328,-0.037456711687110449,-0.97340382987225205,-1.0888065789644026,1.7664601169290968,1.7620942797584642,-0.24468936752050555,-0.41619936563013582,1.008779677087466,0.15200272550094254,0.18223584501217571,-0.45786062143999129,1.4450176311257688,-0.0015993531479718878,0.081666459793597448,-0.42172085811695353,-0.10138709534069475,1.2284070485632244,0.20776923877356254,-1.0219510268166603,-0.23583361551185045,2.4890164441303426,0.36806952967861506,0.82513033115634282,-0.11234119184536334,-0.42987272171831536,-1.3257336729656726,-1.5908906040917725,-2.2542623845573004,-0.27449038286699096,-0.73466808370317904,1.1252795898532109,1.3465874623026646,0.27477286664717698,0.41474696641539049,-1.0517025469026016,1.441722352058177,-0.57715685918008197,0.35114902352261523,-0.88291691332322697,0.26554280802182051,2.0035700926920148,-0.38400085704292541,0.47926112042258129,0.58962639132125272,-1.8757333178392868,-0.40860445895393049,-0.015545594179996973,-0.70114023965320293,1.691534271581661,-0.24687878438055225,-0.39057779865383285,-1.1747834821675589,0.59811312729721278,-0.93822750196094817,-1.4471812147054692,-0.26016403288069762,2.3237063865319216,1.2165908682327011,-0.21112220902247308,-0.25305150779087493,-0.90232438879447419,-0.9592432453767975,0.94167380127432776,-0.2464363428589367,-0.93806237208652121,-0.00037894497920463473,0.18486374779450024,-0.21722576297018553,0.47840290285563541,-1.0812133708108862,0.58484078683763829,0.83794612089238296,0.47587867679799495,0.01810363327362647,-0.69029018540021447,0.67026009434118483,-1.0596658885009058,-1.3842632741735259,1.020272448415676,0.16359605272351363,-1.6372073908502029,-0.70965051826200265,-1.2892685240696504,1.5388274805939968,1.0524687927800247,-0.10941072849323943,0.12188943037612149,-0.79610187935990073,-0.40913166364717279,0.41268190431935309,1.0490664475148086,-0.5278938128855809,0.34911254594192415,-1.4644835477703191,2.0667969864598401,-0.60871563883718283,-0.86889747461545841,1.1295508565482522,1.4368019204485125,0.060761324168809715,1.5004057180607733,1.0256808563493869,0.50961031629294828,-1.060211687676575,-1.8511674024109148,0.20114636066382363,-0.31270934808157996,1.9200597408360898,-1.9382509426983281,0.33559251249742006,-0.12010526895168921,0.49264691793069537,2.6035515289582203,0.80822352684786081,0.70179648711614839,-0.21125786544162523,-0.00078920858967886423,-0.66495906713781305,0.4615978560136535,-1.5940038458501073,0.21017638631079946,-0.33528847600551576,1.7107466884234177,-1.0375477461854572,-1.0962231791007599,-1.8918425213141046,-0.022513590734032689,-0.19788426830851186,0.58875107653453107,-0.84634332339013041,-0.35219484583110716,0.14059194324886246,0.065657089268171057,-0.31718882466461673,0.77482607913536006,-0.5210777409437749,-0.55288373722319217,-1.6199687393162538,-0.78015137770813192,-0.5440589276143124,0.45836877633138828,0.0023587835438322316,1.234653060556548,0.74304586084804536,0.37943535582999521,-0.30891553757616341,-1.9939451581931709,1.5658226552491217,-0.32164225377318512,-1.118973736032477,0.058604306934083583,-0.15397586566484289,0.49435860604040266,0.59616497514647904,0.089992674933458097,-1.0179864268657064,-0.015667644228227279,0.28608697227580032,-1.6318836637517131,-2.1244000141055439,0.85191481301924843,-0.97145455114225399,0.11099415618189995,0.1624175270302802,-0.68503852365793927,1.4636883163065824,-0.71522543494991764,-1.8999138651691652,0.38288209779264698,-0.84319879750333926,-1.6112808835835484,-0.15003972449986114,0.42603160151592245,0.75667560916860155,1.3240984230927206,-0.46967216640172399,-0.058877867971454757,-0.33911100994655818,0.67138604121305412,0.092165139492851364,0.029833188121248005,0.89481930039223356,1.2586336624398686,0.26330204508018124,-0.28975897486498065,1.2234462320849075,-0.093461824944413754,-0.038811911535629476,0.47104907892637365,-0.017304412210658739,-0.40812822520560837,-0.57434702947317129,0.18465678006429603,-1.5483194641462628,-0.53455566883287275,-0.18640748519766412,1.3861860144298821,-0.73162415845250894,-1.5825097231308911,-0.61594964499612603,0.13717931663393063,0.64168522936171057,0.21883733120998772,-0.89341740619594845,-0.94207088240194203,2.0815615170874873,-0.69757916330642233,-0.46919376511706534,-2.0937421920973316,-0.099638822395003449,-1.0405636462173122,-0.045154501564899786,-0.92991289665789012,-1.9859618236665013,0.27109609248018091,-1.2420256356305681,1.2469360218247798,-1.2875567813617821,0.01979050427058146,-1.3868960651144058,-0.040319059834513164,2.0773911163730334,1.2470552636899803,-1.1953126416117228,-1.1035171179147996,1.3543050428350383,0.35773474568310987,-0.64305987510939278,-0.52948194741359889,0.51180916830348633,-0.043258228748420287,-0.9109956256896542,0.57772240532205477,0.1479217895064914,0.16788061329674742,-2.0422634832908453,-0.56276908637788725,-1.1035917742821229,-0.7915938684147853,1.6190917891417966,0.33443802695259489,-0.94721307341642569,0.51834407523290604,-0.28824145734594231,0.45860271091190041,-1.6883756428501691,-0.42046125710262022,0.97065002327573313,0.42197004672227467,1.0299074474378755,-0.22008888741518545,1.5074556958887475,-1.5608447697921046,-0.13078146824828032,-0.026141418428172074,-0.56485742950330597,0.43505649326010154,0.67661839039250371,-0.9275445516422075,0.57623945886727712,-0.49246577058527391,-0.18397659568192562,-0.52557301582333316,0.49995163176179924,-1.069250042588515,-0.93911753250043906,-0.24612908355781635,-0.44615168662747479,-0.26264716969984447,-0.06958541947689087,-1.1627789393032035,1.362850302928817,-2.4611879706707147,-0.25466450048306755,-1.4195331980325305,-0.7033877924762505,-0.54452548508653742,0.08541886098877427,-1.6873427126281642,-0.77137413344002148,-0.49337375869942279,-0.28564019270691615,0.08193408587314735,1.9146949111489797,0.60326796696361951,0.55281195420116569,-0.13300523881750967,-1.9501855941145794,-0.8821412503570869,2.4962111437974008,1.4590639691719229,0.055623477875314388,-0.78746145830568515,-0.14583258093572513,-1.3942689282968745,0.45760890753094502,-2.3821011554888591,0.93924138689831782,-0.52105119720256188,1.1650620659158222,0.61407073684117097,-0.090803188838492865,0.8588617209264876,-1.3136639003598791,-0.65712723150411423,-0.037529082956465711,0.93841128820447994,0.62991928179130041,-0.45943691218560173,0.047894363562547809,-0.37756487504839031,0.55045430987056443,0.14674731608303382,-1.7809444358978617,-1.4954879928512694,-0.3178879511048448,0.88110664779891856,1.7553986984597909,-0.23993275165451353,-2.4082230138173317,1.2723611215002708,1.1641420267639149,0.1535104091756461,-0.16742052203464045,-0.51294480257066777,0.34974902969122551,0.19663761584561765,-0.65227375449682223,-0.86352472801971958,-0.032927818882887878,2.4956021035005826,0.19973409798822797,-0.5587779043338903,-0.61029195570545125,0.88228598222482613,-2.386820954746264,-0.1828719857797281,0.24006867579276076,1.3790499420419506,1.0900297142423603,-0.81981571380454021,0.19190890505624816,-0.2656452962270836,0.28419180804381838,1.5053708325204305,-0.14340069811719128,2.1630733334012007,0.36435869662430803,-2.0394549863397744,-0.24262299870096241,-0.42334543203124553,0.74973634913913167,0.030390734067437714,-0.63518954906998337,-0.16385799151831487,0.21223437017219982,0.56121695050686604,-0.89517741019419073,-0.89665222330006555,-0.73012798563157377,-0.47383734717908799,-0.68280645153733699,-0.080859925460040658,-1.3455538466613668,1.1279997482717119,-0.64697053008254246,0.66689455850327584,0.62549238524320327,0.28641819417483294,-0.39934845708976763,1.1124643751827705,-0.028858787399058394,-1.2444685087935701,-2.3803976162360492,1.4750024188299242,0.33597679698476973,0.21202944590873024,-0.82552868580298666,1.1055020633546151,2.2151096151851259,-0.2734915841882557,-0.012422443015323342,0.83584248126338767,2.3145734456166411,-0.77648048787138879,-0.75514626751534419,-0.71565342417316735,-0.78254365161310302,-0.081470000392252245,1.3147266365726074
1.2393189743870756,-0.82157960867021274,0.2852533124833852,0.84446431617171014,0.37164090664984656,0.91664216720409541,-0.66832858469491085,2.2061193582902123,1.7920521583303881,0.30503099086700847,0.14711223826983727,0.63932744461102864,0.63746626501163184,-0.5231300780633048,-1.2532878125222335,-1.0799727128710273,-1.836294244753069,-1.0712283118051797,-0.38887082942323237,1.902627975711892,0.52813529545151994,0.71095009787375363,0.65446769232472479,-0.27654304854465545,0.24819550178455826,-1.2584808873359572,-0.61131908900386012,-0.85722740623340754,1.4714711105529281,0.37697911223248654,-0.61782266098635785,0.37651234095926361,0.04180270824105916,0.35016335651702102,-0.42992956087297524,-0.75089077833968798,0.82379707903922905,0.55926637010806501,-0.44382201203155458,-0.52727715228415917,-2.0565309131703171,1.5964416494283107,0.39663800093166957,-1.9052549380070309,-0.17153026957821715,0.74962514570251171,0.13540220606986872,-0.0046024452806554079,-2.1751517758833239,0.93984888894021645,-0.092899350645749237,1.9601374954580124,0.14859538142212794,-2.0604536416213195,-0.35747341719613251,-0.090072180313562678,-0.98241719447114484,1.1930716973917797,0.99386072856531615,-0.79697006680206894,0.26647052091353063,-0.35817400012008099,0.59067752781304272,0.41896063839086428,-1.2574608444268407,0.86610192068631009,-1.2393042654828677,-0.31858716181175095,1.44912108130546,2.2264409100142943,0.19521742091280817,-1.4202972367916369,-0.28781191997949684,0.28893797294452789,-2.0924191451438889,1.7232448998689491,-0.65424230753199597,0.69910847389191066,0.50117201887103535,0.055736259158075778,-1.2186240564490936,2.1196703587041137,-0.36776638313520549,2.4043713653240988,-2.6480549375968527,-0.99273943042638924,0.4888859098571553,-0.77073664905226369,0.093973762695907834,-0.56011322919958773,-0.75948647844369144,-2.2224527791164257,-0.97044096275875069,0.58595240706489682,1.1863352959910225,0.64558245672548353,0.085997071131974148,1.2905631635281662,-1.5503172243160694,-0.71946384865767543,1.5585060507230186,0.23812621425249139,-0.75162497213441137,-0.61423281409590624,-2.3203015128342481,0.26750050155481836,1.3785265563731175,-1.0257913132774934,0.2013999512966885,-1.0954823579168769,-2.2228912786736834,-0.7200690878505438,2.2397346440624153,0.36821191110968626,-0.31679708286715169,-1.8398113731841854,-0.82866989190567619,0.77807822328832055,0.15660070201886472,-0.094525412178082177,-0.24564197524216311,-0.090288185379570327,-0.21471298655599053,0.32831296733854065,0.65184583852173938,-0.73663730071007627,-1.3282198413243895,0.5292534780224023,-0.52982951233688491,-2.0133157092545262,-0.080188200713391292,0.27167822070477482,0.29967489359681421,0.73322350493558019,-0.77890456995900637,0.44847822992834835,0.43325388012924526,-0.36178188243812565,0.78648746928358082,0.24319324490254499,0.98011632475363708,-0.95072250056741414,1.2356711854958482,-0.5841468059045799,-0.9843173844464288,0.82042398827466045,1.3493103732009726,0.36054868075607571,0.75220731023728382,-1.1653242648329083,-1.2226783664534724,0.86418617264955666,1.0984368570594414,1.4493294893396689,-0.6918105954886743,-1.3467455282250447,-0.26591777718959037,-0.84684929343135129,0.30812114203969204,-0.27909912838364792,-1.3885023067364193,0.97413092111699728,0.068469185764718568,0.42285482888128861,1.1979266183487194,-1.3510134873176136,1.8594856511855351,0.063767760055954442,0.089938500729047882,-1.6717545449073683,-1.3634743183528777,0.60150906501180723,0.28685946442820159,0.050715044123265503,-0.0077269051559760923,1.2861143889235422,-1.3937564986522253,-0.081623867613823467,-0.25284984361635876,0.40675516745475715,-0.3621837985281654,-0.66485295905812369,2.0701713977086409,1.1237029620744765,-1.0912498337898511,0.036584728229233719,1.9866238479340721,1.2502139525042197,1.0800595400060842,-0.26482241396726641,-0.10000461793370473,0.38636386878923018,-0.060746350401564307,0.31793839334320012,0.68529190230658033,-0.84431432897141856,-0.30263800445401934,-0.72122521739701295,-1.0460853537633754,-0.26764146891490381,-0.92129186730901169,1.0493528491349136,0.021106213464052871,0.16659154029648393,0.84410472842609519,-0.067209184926044982,1.2070929708895612,-1.0763068101937505,-1.3970483197951924,0.85629597037359217,0.27234002242980304,-1.5763380109020202,-0.26844611402709923,0.57537267439615414,1.9140023176080303,-1.6598808947041621,0.98013484266137163,-1.0137246822901762,-0.49473339269509942,0.50775304633924379,-1.3776059559110594,0.77381887943892613,-1.4274133250675831,0.12481680215965646,-0.16852710136748836,0.60816728635740991,-0.9004912501050446,0.0045109044893044403,0.21721659259331383,-1.0584015332269032,-0.34048692254072582,0.18570607281086385,0.68559959785732238,1.1963677799324133,-0.022192983800675026,0.024916655081900659,0.75432530220602301,1.757500848862626,-0.53735631439105436,-1.3334277401975572,0.47567573882577696,0.7638962977030006,-0.89604371704677088,0.5868958988720635,0.887695649377371,0.61496045128982413,0.71027700735161936,-1.4800726753511986,1.5798010582030306,0.40469099517428669,-1.5058143739208472,-0.39120359418689427,0.25289356356805875,-0.13269468733297801,0.9780734334858745,0.078979274249504919,0.10267198600614795,-0.026235319476912426,0.82873615995491912,0.83015410529790812,0.047355530339545232,0.48018867549022737,-1.3897654279988889,-0.53517704021896573,-0.63491386662556115,-0.28061464720950774,0.49935095141690822,0.22018904878104581,0.36927993657323421,0.078469910052968855,0.0052233834177098908,-0.73210577490237605,-0.074644091438048232,1.9823245656673831,0.64263932696690618,-0.84051310801505208,-0.58996753104431698,0.40164573567595285,0.16895437560546692,-0.24296388681238956,-2.3977727459238229,0.48854254473626929,0.076053665842824789,0.034110998697287412,-0.71373456674709956,-1.4072237521972353,-0.92529061270451529,-0.092630678998499583,0.31441445173854582,-0.3369111611374917,1.1563815046393822,1.1742418434465784,-1.3906454192931801,0.17322412820924521,-0.9518254783443888,0.13856273241268266,0.27119389139102906,-0.63914994473054376,1.2745454130249323,0.16160984761553362,1.2489934650648298,-0.71864689490104627,-0.94043160545013182,1.5071957254495685,-0.21817294455380218,0.24778884081403674,-0.7871525125370139,0.94300523660237401,0.34847535435338589,-0.76761229178390933,-1.6018439228017969,-1.4558922809860431,0.097236999258591472,-1.3631947040951011,-0.75132908098059314,-0.29412272992831723,1.0729060971551918,-0.18537414746011438,-0.98446989869018398,-1.5716955464568805,0.99844379251557835,0.64426612064222244,0.82737829882041836,1.9629700236316716,1.0443925771933436,-1.2844797211439047,-0.20159231042165882,0.60438143234300701,-1.4259841166057239,0.38802621864630105,0.52421029552181719,-0.59604365513338797,0.11787003414024891,-0.74037052051312557,-0.55216328629182787,-0.5916638039945995,-0.10918742201308342,-1.2701186771135213,-0.80490715808386437,1.6821891438029268,0.98652668305551439,0.4129021073028738,1.28541168994463,-0.87078016237754419,-0.12944686463569113,1.394625317904324,0.16189955255998933,0.096840311451484709,-0.11446992305006475,0.23398422194622565,0.719079164813754,0.87248040188410181,-0.24942778728184584,-0.56267574200400283,2.3811993481318581,0.69728344399013908,-1.1845076990743075,-1.1847950853754614,-0.62174656938268102,0.42031822976908612,1.3125090534025221,-0.49096098215835926,0.10975282814265498,0.013832641508447997,1.2850646361683011,1.3905327308306437,-2.160108195069959,0.19589486383916727,-0.13383957047653691,1.1664480941434838,2.1999823211808422,0.43337772568363003,0.69855746364371185,-0.70076995001435061,-0.92110060257101301,1.2764127134552112,0.57092910999345503,-0.5692593524125823,1.7411955223852911,-0.2141844764869365,0.34019290262375079,-0.4148274894862326,0.2204592391792243,1.0431429232796086,-0.77819579442528142,-0.46410117573605014,1.1375178502411019,1.9830625146792276,-0.73666028919748061,-0.66442675722782829,-0.05728878331538282,-1.7864736046749059,0.057989193887875955,-2.6856037985051295,0.47259198235533206,0.9961272214071949,-1.9076251440048442,0.09761218581414581,1.3896316009069745,0.21155132671534818,0.13516720108469649,1.0710072194568823,-1.5297861154360779,-0.31691602588767881,-0.41120985340879512,-1.94527607976385,0.59176747830896903,0.92066932236236831,0.1488213806546759,1.0772433830860266,-2.2249114245273027,1.1312896790990752,-0.85418104134086104,0.7905880281471559,1.1547017009920097,0.72663313668274809,-0.086096672512624636,-0.1501991488245368,0.42714680883332073,0.017143669101455469,1.8787789590932464,-1.8088591554915106,0.65515221873619578,-0.11571237459506079,-0.99729883498399374,0.057470333432712045,0.3009668668025654,0.14795349731304358,0.51436268987497824,-0.46176982598599281,-0.3812580249044018,0.018559476613385691,1.1497261391047728,-0.30838784364544353,2.4601274972952627,0.70682204046326724,0.71522634194009282,-1.0039800444465461,1.0501498069712782,0.17167434431276751,-0.2736386818233576,-0.17590513214038014,-1.0915677134386694,0.23480312720884836,-0.49338569604454852,-0.80725033290329229,-0.16371507822826031,-1.0850705663497375,-0.70737555079640857,-2.2673060582890847,0.74786816678856349,-1.3833230151425395,-0.90231305166670672,0.11344663510811712,0.24351089503973194,-1.4888167646170007,-0.64505621679256442,0.73632688917284672,0.40123191594026758,-0.71733302598533388,-0.22408980213825461,0.58134326255082691,0.1519527941044429,0.53671987612952987,0.8841270000973227,0.35801841578180799,-2.0945943713590247,-1.5828276362755398,0.095256526693696414,1.3370459845543037,2.4646046535522812,0.66765555169755775,-0.9577803499976828,0.3946619827127249,0.51670307124223314,-0.010443626948387921,0.85472992871592246,0.77292348281649181,1.1884600682655861,-0.59695568406159916,-0.10860563586470978,0.43598602775130313,-0.78963108557212214,0.60344286878225073,-0.45738340351680234,0.18164835014087458,-0.85104049551464434,0.22448207722939173,-0.47768406479157888,0.52320090531777086,-0.28991485524564359,0.28893871610790278,0.35330963148440636,-1.0765702347740373,0.1417822364753899,1.019844449909282,0.24823222309980567,0.46567842830325146,-0.51031226927102602,0.22790467889773577
