-0.11474599141982496,0.10209607016540671,2.9931795986697933,0.076538625890081244,0.51717287809722834,-0.62644474642843939,-1.6561932632752316,1.5238826537129462,-1.3963712362843124,0.69317576047497143,-1.1236994516906906,1.8279851895113606,-0.061995261358613281,-1.0607463424862396,-1.9909247021193124,1.1524498926449818,0.21089992376858829,-0.034659274907119876,-1.7572416593929638,-1.8905479222312964,1.3204425826744619,-0.41272881484578888,0.17650706633520474,0.83931015282212318,0.43173284511660953,1.7335531773254149,0.046959871367232384,-1.4570720617642743,-1.4593398488590437,-0.2580229464689846,1.0370984229064328,-0.12791126525816737,0.3221981968195109,2.2238704867227685,-0.92468163706769257,-1.113301113454392,-1.4652550167344256,0.52398650249415957,-0.77343053758266544,0.76624056014502984,0.92354281542390015,0.79964301136687688,0.040018831050823767,-1.5060401257772313,0.84629765005989399,-1.392116748516417,0.5882498803538454,0.053514866276792188,-1.3290035913742031,1.2920576545734592,-0.29932635421962894,-0.45870350731041609,0.86151688645956159,-1.2394661129736899,0.87884144258215524,-0.25669050091635359,0.76030303850489722,-1.2234062673470361,-2.3209757344913315,-1.5461320881850404,1.5305364480304271,-0.026246264163132582,-0.99027144091812558,-0.142543862987044,-0.62627040818537538,0.38028447121908443,-0.69014304503278145,0.095267729195678691,1.3189531478654357,1.0966502851655626,-1.0728239744464363,0.070248277448533805,-0.29649265779167988,1.153882957884846,0.33173384512246362,-0.7566818704840933,-1.1940923492727451,0.12261276259590331,-0.4721653238700344,0.82152272570045526,0.58860075606370532,-0.55034581715657827,0.82961316234473914,-0.31380699480131446,-0.68292079280667661,-0.17330469523595235,-1.1815812350016486,-1.2568328310544274,0.25184641135537544,0.44456544140304738,-1.1167918598831517,0.24360045636119473,-1.5911883676706302,-0.85019637896450062,1.3712086458479775,-0.36058947907601846,-0.45570127564031826,-2.7000455442026463,-0.62384735159308391,-0.12758441772579923,-0.12018110334440056,0.9553644198683674,-0.87329278169835189,-0.57587201758547724,0.95827106757333624,0.32262670374175373,0.60372314981250585,0.55646109437054425,-0.90217098745630453,1.3429018706550757,0.75650058748953686,-0.64641422184333819,-0.48815020616370575,-0.233981600355401,1.716179814326815,-1.4094698234763585,0.44751575808031674,-0.71615770874442519,-1.5002696680225549,-0.063902433542876738,0.35786437960484224,-0.17782480057529701,-0.30082794982551386,0.78374169194876975,0.49629550610275536,-0.24306541130239545,2.3816401926289008,-0.21949435786329255,-0.4162639613022675,0.85190707506855845,0.95366530281066919,0.99107881252305319,0.55039248938649943,-1.3703522752914432,-0.071603126155163718,0.096990434673103809,0.97382040928487901,-0.10214005573664342,-0.10318123674995518,0.79918600235331683,-0.70561274813597663,-0.46132483023090848,-0.29154166990652558,-0.70144138063658623,-0.60405147271382487,0.14895121376876877,0.78034044131402402,0.88144922452779928,1.3255326017046243,-1.0179542749528916,1.802210902463109,0.72883810803649129,1.6239174167464474,0.24544817792233412,-0.58326030154161579,0.37339524167132937,0.80528691293815802,0.60566223282362242,-0.3523473101023244,-1.0008141584336472,-1.5881623920756041,-0.42862757397746504,0.077327461428723279,1.9421997788387826,0.40396666780924806,-0.087941858409666437,-0.68028887458309317,0.9325661020739856,-0.7544080971757563,-1.8530563215999174,-2.859325921971362,-0.84717280685270557,-0.3275580988877787,1.5229682261543001,0.26525008716946624,-0.094963039301937821,0.14902735105110795,2.0475924364518687,-1.896097707394488,-1.6111603006160418,-1.407567377485144,0.84043342363483176,-0.058037477085905627,-0.65777356674283383,1.3936767118625502,-1.9083159550493192,0.54226428052640419,-1.0237020795328848,1.3820260469205425,0.38538039231404253,-1.3609190934573634,-0.052590807101313003,-0.48448700953650126,0.058197159667365501,0.65064060597974283,-0.54688832290452183,2.4179222705325687,-0.17289421350936623,0.98481827787656595,0.39234361181967575,0.27136376652400407,0.41395254393529901,-1.3234615113513735,0.49911715654997824,-0.43718590466348795,-0.91170062377797156,-1.6321960085944647,0.47104829713497232,0.3301095072553808,-0.51080300564921566,0.54964943129376143,1.2986053265475563,-1.9871345311389479,0.5696003129916869,-0.58123459549817402,-0.94065662693368779,-1.0980925304710585,-0.062202305391633808,0.44247455969902744,0.81694013499161899,-0.056765479848961346,0.1332094202719023,-0.3247551413387198,0.3878530164972962,-0.033353471837908086,1.2952957748229821,0.037988154062234145,-0.63852688555835013,1.4008125922043673,-1.0419401458326654,1.4019897876792415,-0.076375083340510047,0.036452444037387052,0.65188354946129001,-0.30925140813955515,-0.47991626511635999,1.0248438044623054,-1.1499397899935251,-1.3636111876683994,-0.54303669101355523,0.25210119487404431,-0.32437230440539166,1.9774405846525096,1.4718838828883967,0.5766977606246495,-1.2439702753720137,-0.19282081693442127,0.43535346510332618,-0.85165450315796487,2.2751370951211332,0.53557287564431511,-0.4871534363239835,0.58685191785116719,-0.61623185599326424,1.220578140930124,-0.41316779841429291,-0.7037558161026698,0.8530058001296823,0.26197227730286193,0.55945961966547053,-0.19190774345163628,0.38933533986106905,0.39538108108595871,-0.55845919074149741,-1.0451728553417876,1.571125857110053,-0.84085621207101879,1.2577657970925391,0.22910273478354995,-0.44319070053124332,-2.0433890079063697,0.4741433436476396,-0.091011528625549454,0.61500886797649035,0.24758217973109414,0.58871243171164545,-1.8217786974493375,-0.34336531032895606,-0.68985048964714146,-1.4121473973864573,-0.75022559856496185,0.56875974673245,0.40207393084039594,1.1320573893632861,-1.5658751324447215,-1.0847306776784176,0.51910498304884511,-0.38542680393203399,-0.85703995486081308,0.01585011200367599,-1.5912682075086886,-0.90636213338212601,1.2227017770640318,0.047639160893267335,-1.5530424411057915,-0.3174169112148188,-1.3627745458448579,-0.21788635174811755,0.80711105403804828,-0.53146077900262367,-0.071346261814370343,0.18855807697757088,-0.89950690951513301,-2.6403726969142061,0.001620781071712566,-1.9423030735475029,-1.4562100768165274,-0.40377979220047,-0.25546934177275427,-2.0391219971549464,0.074563108779187495,-0.46047676622652967,0.60152732661740382,1.5462343067611484,-0.84107625370253503,-1.0039180080909265,0.3211454691876392,1.6961948980961024,-0.36770281665385335,-1.3998899691716991,-0.086759350802141283,-0.53751224572139555,-0.58180916426743634,1.324743653436778,-0.64058636737065866,-0.67037351872278073,-0.46449903541509469,-0.35592972061371225,0.91454899510393139,-0.20356425072515988,-0.5821347268834407,1.2684031564297915,-0.078121738919074812,-1.9856058622052342,-1.6197749151571583,1.557451885783218,-0.45296309508600013,-1.0035780964406154,-0.15905029858163905,-0.75442857076001379,-0.26280286744789993,-0.4182077907513217,1.3136653654001091,-1.1621140901213043,0.62695854750805591,0.33744679184563237,-0.51174805896768338,-0.078146372495736874,-0.87202375613489447,0.57638799046553135,-1.6058611763297415,-0.13863557542184513,1.0530896176726241,-0.53370536097188548,-0.19188891151849174,0.56495732558037348,-0.31310870236268462,0.14554766637229274,0.89148704820357838,-0.19563348662469945,-0.66646347434046349,0.70582636763110951,-2.1928637608637764,-0.50534507101088955,-2.4783080375283775,-0.38512981234211102,0.41783874240915869,1.6292085237950522,0.6061421182854817,-1.9498395973624556,-0.24974108066350517,1.2111546177977033,-1.8906156587295098,0.092924486832000372,1.0954073583222808,1.0121407312107706,0.51671401063163758,-1.1980978968743274,-0.49217929636494001,2.3246303725537678,0.74011683806006079,-0.75311197377010675,-0.75522104777036603,-1.2462279199699262,0.079865328631778268,-0.462974033894133,-0.439179937092322,0.01850843984804575,0.93093498893751914,-0.047648767942932435,-0.71117391923091311,-0.016902023108415553,0.28166178440195327,0.04500227365805675,1.0706442680355601,1.2995961945375414,0.92070828420712914,0.90406722542010987,-0.16688825370136004,-0.89288619215427267,1.0673504074350164,0.00094451661355075714,-0.095893485295605221,0.78577272539865528,0.82331257696510074,-0.19054787383461871,-0.2858730225091633,0.46669513351193159,-0.67720531424927122,0.94215069437004084,-1.2958998383321882,-1.1212425454746966,-0.70585221549597355,0.69279090040302016,-0.64958081874112339,1.1609411383288897,0.33243787256017676,0.011081617569761608,-1.1038775252784987,-0.051378554640137367,-0.053212364438098625,0.88789021885141095,-0.2882969167379128,-1.0261333593715218,0.93384409014129288,-0.32318000060341157,0.016227710484528528,-1.077713791615498,-0.10168013309562193,0.93617294183919242,-0.65720211589594324,-0.13585432756684721,1.2218919539406707,0.19418622254863901,1.1763909432623727,-0.79609895152985322,-0.59272595053678745,-1.2395682212918204,-1.8159997465986319,0.25443547160940955,1.9526323532677872,-0.031352966841114903,-0.16218355573731885,-0.25255028644192873,0.96115206847767387,-1.4198441908260278,1.203849760132349,-0.14877577385716884,-1.0837375658135018,-0.57244793393785642,0.16831726028755392,-0.40184700140550855,-1.8743334273120975,0.52862014012979575,0.53270900186613868,-0.18630739586850198,0.68417094335759987,-0.83822879272361439,-1.1995866823098102,-0.078975243133591555,0.13287448957011963,-1.2184827273980787,0.22089560684945442,0.37864691909714998,0.092093739590479937,-1.2990486159392087,-0.27918089047144234,-2.0965055297477679,-0.17371510979267452,0.91888199792161096,0.83605634925242811,0.88879645793522188,0.46048320697721223,-1.5164835295990491,-0.16465639211856242,-1.3311577315116498,0.30959512104483755,-0.70271598933850621,1.3772150012940407,1.1640188913547342,0.56388394901545946,2.2175923995022373,-0.62156575513592927,-0.20730943522286224,1.9956093611262606,1.0025350278132874,-1.1590760149670021,-0.87529915687567161,1.2461057275578156,-1.0677552821316134,1.9093937894709518,-0.90785415161597605,-0.45204857016839012,-0.99362868752859967,-0.42215952919587002,1.0040888799192673,-1.7222111859890821,0.55095041530771915,-2.5229266492927525,1.4475833198976011
-0.45648723019322618,0.89829594392750689,-0.77356270186362153,-0.59593102624921157,-0.28692778144636433,0.060487165175730245,-1.3817828561660443,-1.696865704643046,-1.4222423363545322,0.47558672392837686,0.11104463231287583,0.70263591038197792,2.0720336915750237,0.89981776816246084,-0.97431597926877656,-0.40123657461955359,0.23389110379069827,1.4681549030183043,0.30257752006497457,1.3466123744782235,-0.43354765594412359,0.73930229269011005,-0.18698159494062891,-1.8493073738135486,1.2020655132319313,0.69178183675543303,1.235214381625688,-0.76600486680355473,-0.95632012691939594,1.5748520965719424,0.16228207670146744,-0.32648762059375441,0.65114054222994999,2.6198623746762948,-1.1477610738309469,1.4258706610216574,-0.58830482506646731,0.19363449674770697,0.048436159055276332,1.5057618369117158,0.75642169802657233,1.3447971233574221,-1.7397954853275386,3.0545725764593308,0.80666064549433303,-0.61066508314228418,0.098776587728193296,0.90379002886075077,0.18196197749852527,-1.4466392928500493,0.81744682206861863,1.0800122490143163,1.2231469777465731,-1.1335352958901928,0.7000879521061828,-0.48515083302441414,-0.34264142608352155,0.26727937587070555,-1.2368141040947704,-0.61112497496132345,-0.27591940759945716,-0.21725402907280969,0.17519186861116567,0.8038065710294835,0.083383251684865586,0.58377184959426942,0.66686953780825631,-0.11696998292642294,0.21076249477163661,0.77598723837727213,-0.61334459427899524,0.31875159734335051,1.3757538365775528,0.044756943273709361,0.80122258473923658,0.39446601531871933,-0.24191027289720124,-0.52319779117131227,0.96277158413380859,-1.3422077901030192,-0.16535746762239745,0.96072653163876098,-0.70090260661856474,-0.07161318803369239,-2.4001037978064717,0.52576660639057748,-0.62109732971718223,-1.0911481248342969,-1.9337626648836965,-0.11378020820884635,1.4461651956883201,-1.1828773598102262,1.9820318362072176,0.47453672348671788,-0.37128365696698262,-0.53225452454105104,-1.0458667586239307,0.27595306454607915,0.41056402901585359,0.946157477882556,1.3119682638358758,-0.055632741784630228,0.82140783938152617,0.56930990551900618,-1.0815085130910393,-0.9181373860565496,-0.38173368901523713,-0.75184952534509908,0.33177068079677985,0.54816506892149197,-0.58917284348818355,0.024354332709794039,-1.9032780649412253,0.31358171204315688,-1.1138138705542853,-0.54254405354648538,-1.7193259089651614,1.770068006992614,-0.25351223170601639,-0.051073977839488478,-1.5925574872833173,-0.93554960744840909,-0.23060408154019335,-0.10542935661748332,2.2925344510198853,-0.75844214055679426,-0.92275585011379058,0.22518168263822971,1.4540714052834227,-0.80034714337381119,0.032519823041360675,1.9412066491254105,0.51500463583981104,-0.37271324691520424,-0.55870163637521053,-0.80181564292493968,0.340174488187868,-0.53050178328288367,0.98501751004944749,0.19792844479920946,-0.85066404982905308,-0.073127271486491549,1.0648662079189772,-0.31235670305573576,-0.88577897532302774,1.5255048467127281,-1.1943884768524928,-0.51543981299867414,0.4368045368001634,-1.7079953579810754,0.051970986078901001,0.037501378924162679,-2.2285139096461859,-0.52579707616418891,1.3271235109486716,0.60422984575862315,0.40647027563133026,-0.16349852744833884,-0.56286375000080491,-0.10542310835130808,-1.257996287339276,-1.6092366518483128,-0.34130263796683108,2.0026177600023241,0.22590253867386953,-0.033774464034169616,0.48780382199870187,0.38303720280582793,0.52071441797583196,-0.53532605776319608,0.067226622210938877,0.51397798856864096,1.1682292700980395,1.3114483924732974,-0.2757311141380247,0.36425085368062105,-0.56995477126661043,-0.72077224066063084,1.7858931129313682,1.1502635807055748,0.30604239164323677,-0.57315026110209732,0.10016210034298741,-0.83815281455622537,-1.2651029221960755,-0.079009138105901683,-1.1615695891465267,-1.4025874542673125,-0.91962114699611919,0.68683614276526539,0.23167369391039161,-0.58892564256014857,1.5876561049467943,-0.41220160024265889,0.28982935244024938,-0.3699681844589614,-1.4734447511303359,-1.877212351337378,-0.19220576885656029,0.36276421216639765,0.28495816845205951,0.040029248503978279,0.21723523585672405,-0.26465145186276973,0.96642477236117097,0.37204169925607894,0.17279269568868899,0.20009561160505449,0.19108433934114677,0.41394525502928514,1.0037346595861087,-0.163163804429202,-0.4197770523355166,0.25440361984212678,-0.59556559673712717,-1.1724694861456348,0.16811711720487704,-0.98092848548663947,0.20236909983899129,-0.23899322311885657,-1.747620857585698,1.2817889095725934,-0.99317937894703567,1.3234914282456585,-0.35634076409875237,-2.8080604600329826,0.7528633959922465,-0.47885087483436278,0.13937752914594226,-0.585969387593818,0.86860518105229401,-1.7821382915749602,0.29474860288145965,-1.0771987482527321,0.20077175747553314,1.1920697300739991,-0.71201706660339681,-0.22358922782694771,1.1340015995367576,0.41405709855084688,0.53986890309020519,-0.29942832068089054,0.16843898908194999,0.4088214821144141,1.574964869525546,1.8882943431209671,1.5263930495171203,1.4532004705072059,-1.8172610841612131,-1.3201555611860387,0.20021198173465274,0.73565766049750714,-1.8449160920544698,-0.57381206714453037,-0.1079133030342682,1.0562534584075163,-0.75311654971623665,2.1866478643891045,-0.17767670068378891,0.87126292495297253,1.9814255150528701,-0.51185039169772351,0.20607253620400248,-0.0026640639960676541,-0.72076429411990339,0.12497691712407512,-0.97618430808867784,0.70062591718824141,-1.4936580051132653,-0.86698370874704511,0.34753835278274331,0.83549389838319954,0.72453314745628217,-1.7229668928022592,0.34772706012330917,-2.1228673326629526,0.9383350395462341,-0.58621007368514766,-0.11645738707030311,1.6898719918779532,-0.41485198861790151,-0.39053032502336427,-0.69179192518983523,-0.60196150497384437,-1.2708253721686744,0.7362894802388199,0.180934863361017,0.71768673016848528,0.51647259997246353,-0.76909374878565318,-1.9025602044116656,1.2761155615304343,1.0490144211350916,0.62005658106521333,0.38935022653011192,-1.3791017452348846,0.2334176958167862,-0.89675909052101355,2.1907024168203124,-0.83581522683985088,1.6503130754644422,1.5650686265229274,0.92900333956492187,0.17209565621390507,-0.23830074880483862,2.4335502579289399,-0.59949324364405576,-0.43635802166000037,0.35640394171792306,0.45414569522856885,-2.0633044705609347,-1.2776511076523656,0.39762767076785605,0.87287455695593996,0.91776379157748544,0.62535303479768711,1.3162174310398842,0.23625127306318763,0.94556055927318439,0.20360361511034181,-1.4617760427079181,-0.88366399342616575,0.38916129970384339,-0.42299368208299315,0.48707956880383912,0.11603374933196639,2.4751624023654486,-0.45488669538722204,-3.0413923435657435,-0.00016076707900968822,-0.59377341527187832,1.5194605797884797,0.54774368089052528,0.31265854787095776,0.5418541989361203,0.58629493263900445,-0.90839982384345574,0.39978008265197457,-0.34899182638156845,0.14415615373058924,-0.34749870611923306,0.43613579504551153,-1.283143835670407,1.0666750971372576,-1.0480849395016585,1.7212832192209364,-1.4099623179386818,0.29803543921381209,1.8155463970995291,0.29743465306132549,-0.95806543878926709,0.18022717023554577,0.1560538978367822,-0.81850648600439035,-0.96394663809725112,-0.10040815570520359,0.13545080094930023,1.6282918185099322,-1.2885255113080742,-0.677687456131845,-0.58960663756028808,-0.65150370948633729,-1.1013452309908394,0.64136477125600533,-0.92964107131653906,-1.546066031796532,0.89747937362853691,0.024739825980109809,0.30538616283953596,0.037671863506155472,0.25757960010636316,-0.6319178958447198,-2.0742016557444751,-1.2727085918582253,0.82393278323026997,-0.60390137727476367,-1.1194572163514018,0.37653288442031324,1.34400542176461,-0.02491372868779429,-1.1908276014909656,0.58497349798696696,-0.31324123504274531,-1.6738797173785054,0.041808890005255041,-0.87564128517568707,1.2966902173709975,1.7121111486428995,-0.65045610129044196,1.9391600758364567,1.119579203776216,-0.70762839340008843,1.3033387295880607,0.85117473949474931,0.1270654145957692,-1.1958152369613415,0.95058798858614513,0.62359943530672979,-0.40232987981872098,0.54438712208070095,0.56743766701520848,-0.75178609237287697,-2.2792495452199688,-1.049743243339232,-2.4137166418847746,1.157431789149115,0.74453219145956195,-0.56704981549565669,0.10609284322428306,-1.1382670396045598,-0.26389413233775566,0.436730595045772,0.13467535557002372,-0.077323672995412679,0.1138318209578144,-0.33716904090608146,0.052046261820803727,1.5231512823036601,0.83129612121193308,-0.15741177552506927,2.7923836631243764,0.83996369841144292,2.4949910343516652,0.70697109876470532,-0.46057103718272935,-0.37197607953735817,-1.0282684856774835,1.4357907853728218,0.06979690780458149,-0.54317513101965742,-0.16221034346275792,-0.37445562353564399,-1.3976252964722851,-0.19920713938109491,-0.89175950204754495,0.20930415454833745,0.83070195258797364,-0.074997579259118624,0.22805334372903746,-0.49652301574807872,0.41297377480223624,0.085718410947879992,0.69775857316279077,-1.2546379643031937,-0.35251308883750876,-0.32660231948344387,0.96503581548121331,-0.35960954231050768,0.0034555680760198688,-1.8686851846678372,-1.4500670526257153,-0.73487192294208736,0.065671328613052304,0.57061636886460787,0.074753038844396727,-0.37575127702539629,-0.3314342138384283,0.30579717358822239,-0.85848647677158207,-0.49514490049196114,1.6407265880866437,-0.94310827165720457,-1.4840912530241526,1.0489726420667349,-0.80385838466659187,-1.3897784965834128,0.64368209244146801,0.68108413606335383,-0.24384967182583636,-0.60562077760330191,0.57199562323004416,1.8699687781445455,-0.15988566374299867,-1.5553597739217147,2.1976420281716287,1.4483029891054826,-0.2030111028978267,0.27809476216904649,0.37497310902384201,0.35174088384952923,-1.0204900712312632,-0.94670226582402495,0.32106670732785808,0.086828458582349846,0.92926728250861712,0.34911452740382232,-0.41089041724295355,1.4856476690573408,-0.53985199677522611,0.85774391329414601,-2.5046204678651267,0.15085465848115442,1.5555589084003791,-1.3576715674931084,0.35034893261631722,-0.38763495034887924,-2.530700798752842,1.1576043670202347,-1.1315294625544949,0.35256528798715991
-0.96068225429154042,0.28112632605968085,-0.0051660053957196632,0.48471850812676254,-0.1219463131259797,-0.54128790801619231,2.3779962312344329,-0.16157730093132025,-0.91356659537517693,0.21413970184533013,1.400697844349956,-1.3705944048673138,-0.13569330729742549,-0.19665406324365989,-0.29178261454544552,-0.3582320851648923,-0.10396390380386299,-0.52340961600999114,-0.48601057202052067,0.95237345316851285,-1.1486201064503903,0.49017068853374007,-0.56736653978208929,-1.3348755007914421,1.8078201194242653,0.9455803205906208,-0.4329921186105849,1.1973136645278506,0.65077154351768995,-0.92219616475771138,1.1077571805387412,-0.79544104805340388,-1.1102471898618786,0.20057959126036146,1.5161469653574955,-0.60226235719531396,1.3310421551424878,1.1324670059002093,-0.81426600525796178,-0.31407945006567944,1.5476979044653654,-1.9093257970844533,-0.94185521129875449,2.2699989995125214,1.2865504644503061,-0.23003353032258264,-0.45907880820572078,-0.70665964318573471,-1.8139796042503467,0.52519266082500271,-0.1792347448244361,-0.45469220268213706,-0.14335644114986615,-1.6740210836485272,-0.95108958077902028,0.55178478700082234,0.0032784656700174924,-0.97970661131104231,1.0856771950600694,0.37895839686505961,1.3885501530987538,-2.2573211308069681,-1.692863187932907,0.58794294256050583,1.4155963154305196,-0.66804206341035732,-0.38625204532181773,-0.085964163480816674,-0.062148749944275265,0.70165238249959239,-0.13584641766890362,-0.67371097903023958,-0.10443531528268872,-0.52832751835374914,-1.3834617552519464,-1.2865636463050332,0.1278818645451775,-0.1803839720388298,0.72769059557825466,-0.3955938843011797,0.38706005169796964,0.24252524881589035,0.046537036621651505,-1.4815669956585977,0.7857439794093477,0.026529075312098426,0.72861382463050095,-0.7726963845153797,-1.4758878443845662,0.28972548525453051,-1.0999042865729116,-0.61986435023308961,1.3614413075418779,0.51581371767699224,0.35983779732848353,0.60983281405492806,-1.2586057073924641,0.23416886631152992,1.5570355760566117,-1.2663757207249711,0.2742290421593746,0.25730270472330641,0.027212518438304124,0.47179485440067948,0.64655622746363384,-2.518350379764311,-1.484710909284664,-0.18831036404071938,-1.4298055213956449,0.11908617496895796,0.41238629505180213,0.63652006120258064,-1.2652534902443056,-0.75919840902372915,-1.8428264638061216,-1.5973112428988299,1.351880295085621,-0.16594432335783832,-0.48284954837159044,-0.693234864998164,1.4798744300946327,0.010024234777035618,0.39496678660155671,1.0041608509014908,-1.2317170743770431,-1.0784160891753929,-0.59010363241506436,0.35950337404603888,-0.97045133101972259,-0.34151313682825685,-0.74033656819097171,-1.0975355710775199,-0.67897951000990475,0.041106123958338819,1.5112746370816592,-0.85363444560463464,1.612632660424685,-0.26185315554525235,-2.2584583667770972,-0.59847360064126831,1.9309227402858344,0.4250757026208295,-0.85152686392399457,-0.46904888746929813,0.21414769670540332,-0.53343730777201348,1.464301135370049,0.5719023783218673,-0.70820783786636277,-1.7840108744556538,-0.34658017990827439,-1.6556539861244892,0.029794042155627157,-0.50607900407294859,0.42642463967287925,-0.5163240799627794,-0.54019168658834171,0.67880546305752187,0.23273104161201391,0.70869218190878724,0.6158068639074511,0.81734553682470967,-0.92420364064127269,0.27638272288491689,-0.42154349954002468,0.69116629446095346,-1.7158974951445729,-0.011952159800617,-0.84720687892329316,1.152557728122301,-1.2113594866133215,1.50912536146774,1.2699228571281114,-0.55979050115711715,2.0595483769162346,-0.17742598654257494,0.25224855001951202,1.3025434343482187,1.8830714034605065,0.90777519327045497,0.50063374731172672,-0.74254908765126049,0.095756445899200626,0.30900869793338204,-0.060807580315024708,-0.44459086568499023,0.76174885990552854,-0.17310113306616268,0.021487244939278144,-1.4916808157619608,0.35293887252663941,-1.3380876874137229,0.91440629684783703,0.33440491276399237,-0.45177947572452237,-0.20625905742455256,0.78290962509785367,1.8066595883175518,0.61164374199393223,-1.375434380538731,1.2469586629113165,-0.95401355066803739,-1.5900956816152554,0.84260565191831238,0.92832673252154485,-0.40144647600298067,-0.1791201330429345,-1.2204603482026533,-0.4175832715811974,1.0368400998863476,-0.80285919412010798,-0.26324832265124803,-1.1806961820102175,0.71849043658696432,0.46556250509331759,1.8234981783032727,0.64926207542263592,1.4832446550777632,-0.56351177194987345,-2.9401331659659924,-1.3886140305478403,1.6274447347561871,-1.0586317302322978,1.5432520537121543,-0.055983100569365618,-1.1036948497989567,-1.0135591695539401,0.034625138361836942,0.019934556078027972,-1.64633059534866,0.54467232129322218,0.26367787896782058,0.008317472397152673,-0.23197212239870815,-0.13994862323434409,0.1382828520501462,1.481301378223961,-0.065452344780628197,-1.2726786753367516,-0.47234575012677432,1.1550109947496687,-1.1204973465929804,0.67648901931044125,-1.5488887148999146,-0.26985614254442786,-1.2116379070436281,0.68357624206139433,-0.71461893686279687,-0.15971132332977411,0.46736272103274168,-0.06228282316664184,0.68683465619500894,0.010449471819904986,-0.49702785051999981,-0.1081733457144976,0.93527698683447547,-1.2729097644301035,0.69720450720300275,-0.84524758833658253,1.488323749640698,0.29444761039830636,1.058842402469679,0.43260939924748121,0.5054771713127062,-1.1318930831613856,1.431662007272305,0.90891293481687074,1.3999613010319361,1.4836374973166035,1.1114823327672128,-0.64623371447353228,0.9111421542327538,-0.28342206783761176,-1.2784452910979724,-1.186694860329474,-0.059358495325682492,0.62222330914010249,-1.3656835767522513,0.058885018459846845,0.35839715311902398,-0.38528077268862815,-0.27178453493694094,-1.4859970413080705,-0.27385019288777496,-0.84601681281273389,1.0028245219463368,-0.55885093213986381,-1.5188800295338221,-0.98642981492300386,0.68925773278172464,0.69782442491627761,2.4258352685446076,0.68520214262559753,0.64840193980119776,1.0628758557237905,1.3296991443068202,1.0061594016712476,-0.47856805666088403,0.1575832720309838,-0.18871141838819183,0.12319756901654474,-0.32680422658489888,0.28973947803324457,0.28071971942825952,-0.35501858089644983,2.1492649851205337,-0.66053926712592759,0.14976995191294701,-1.751318265738568,-0.38880302131124506,-1.2935380273149988,0.41993044992539247,0.14713130222228052,-0.34376070905576467,-0.020680782506435392,0.046320380864634081,-1.5242623400457966,0.074086628660779683,-0.16447572444872954,0.31868954685628353,-0.67304942441232085,-1.1949125402930465,0.33040022518161244,0.57643760677752709,0.59983329213304071,-1.1075154148796074,-0.032681292847543876,-0.53975703161322042,-1.0915985066965046,-0.72278391340791559,-0.97361642985027053,0.7749288867952393,0.77070609580505733,2.2103985050270585,0.34414990117363481,-0.13944304180422068,-1.0598714960387083,-0.20343618461133087,-0.10590127568483414,0.88056149885817081,-0.89417301950604688,-0.12028596010881784,-0.13507845965479368,-1.3062242504998951,-0.37780299809473916,0.98794312984035737,1.7600579453753669,0.68999787326282369,-0.78689877404838438,0.81536660432259578,-0.0072168654131140276,2.4914933194900453,-0.8968973178589944,-0.53870759693583703,0.86961628985143946,-1.602838772016201,1.797158746580567,-1.502220370153132,0.11209794425770021,-1.9676190161433638,-0.74885780996091822,-2.2061912577250227,2.9928211268231135,-2.1951318436575677,-0.51904134133802415,-0.022823657724073427,1.5776721349410743,-1.9639468484148708,-2.9562988933344565,1.1859568939920371,0.42674069745632309,-0.56611895508683596,-0.64515959883808272,0.53491683539077972,-0.20256093338787823,0.10590951107857666,-0.62385599258266933,0.93001355840184474,-0.40010043634477932,-0.51592748665230037,-0.010214613348921341,2.5908804338420723,-0.40350611946138226,-1.0990485620890411,-0.43570061809596466,-0.65641459056274998,0.15478754065039566,0.061654084764091281,-0.21472824481645511,1.8161283957463026,-1.1193923863329402,0.3280126902207835,-1.9411103387172564,1.1735029519250437,0.67357550247240472,2.6524811027312811,1.0404847550116738,-1.5914233768357815,1.9989149154242636,-0.66938799278388328,-0.94590304241203171,0.17885609197755453,-0.52480169251813591,-0.7425908993001924,0.6267284197540498,-1.0360434947864008,0.24706196970687577,0.75642163039896626,-1.5924074399191737,-0.51902168767184687,-0.54730386362626826,-1.7961939515312444,1.9368100418062699,1.4770606884109088,-0.55494460220994923,-2.6378721569847854,3.1726477846484555,-0.25802905290559552,0.303674680040808,0.80716190780014252,-1.7284332490727716,0.690814038034963,0.8846377408420466,-0.10552669466106485,0.8442993301628432,0.14635026209268862,-0.95734252867209457,-0.070392024879674081,0.060038027023659075,-1.5215640482954007,0.28456584481890496,-1.2838987102803039,-1.263114875225571,-0.31508469040783282,-0.18501632901695855,-0.34325055214163885,0.33273831444599156,1.4892630009013097,-0.54567978452102139,0.43210999576702963,-0.24481162675685447,-1.276577833652861,1.3630381324864371,1.3322569534249846,-0.54824949459984162,0.077076718549857384,-1.0994061336266818,-0.89343480039942458,1.955599512296869,-0.52346611093479534,0.18821290015000636,0.57805515227368998,-0.96188096949158119,0.84469494525809607,-0.11450790389019311,0.7144348718909963,-0.10012487537318095,-0.85801331742107911,1.3151804766350832,-1.3768358646085888,0.95351044557061493,-0.035200386233039234,-0.91932976870342065,-0.31549943937689207,1.0665499675009835,0.38096057406580386,-1.9052441092830967,0.99496906378616701,-0.049311390914109021,0.054725834082415187,0.34021983858884652,0.44587663554420293,0.38130557431830103,1.2776756149228705,-1.0282397293829844,0.61709077683950775,0.054732890612315961,0.5120759682761663,2.107456340981078,-0.94218762273963985,-1.4529775167319998,1.4243814418876517,-0.12237870640462405,1.5027831295285285,-0.89409924032813981,0.75655082122165562,-0.82149237300817834,-0.4985225684470857,0.42341140621394519,-1.4818337759320224,-2.0560165726767474,0.31572742903351886,0.49666671202012791,0.25209983209517145,-0.86740808582670115,-0.41463117943780575,0.78225027264569247,1.6927443571750258,0.58603840269199459,1.0815589184699717
0.22874424562341267,0.60454118733418116,1.3394920639277961,0.41200145919318393,-0.52957071284972757,-0.68768959867245005,-0.46349517471310842,-0.9248552572338119,-1.5248000996440132,1.0935576799952005,-1.3362214038527096,0.38769422257416175,1.680513039471438,-0.59966213755609643,1.3762126196729914,-0.7956593614642018,-0.27049206306004847,0.53351007782228543,-3.6129319369577639,-0.14928668502201758,1.0533562574970363,0.27483581669222545,-0.16748434851175217,-0.27478230269739562,-0.039527011656982511,0.41188523791248671,0.02533151347215273,-1.9527777358579124,-1.3695109358042186,0.19559868856050719,0.31076243158234551,1.0190266088770352,1.2080613885839395,-1.1727173102326651,-1.3930408472280693,0.83563441887760037,-0.52111638389182979,-1.8684909634014055,-0.1547272228352248,0.84393053652773165,0.444372424593861,0.88870558511233699,-1.0560075937719944,0.54987620466914666,-0.16327692828528678,0.23246415939201059,0.13022787250537152,1.3189221765043095,-0.86140559138978567,1.4255666509090277,0.58296165106448139,-1.3358024947174121,-0.22366935256403681,0.91392066223707091,0.2320904780541545,1.0664084230221385,0.1467427985014271,3.1410676455058208,0.2080179405276287,-1.6127062432656853,0.53234231956913414,-1.2811446810375604,-1.098084890085989,0.41385023773769297,-0.27449366087695326,-0.2265188034432547,0.11844911214564606,-0.7597594977108959,-0.20177985281394686,-2.3084885903367622,0.73400785561335324,0.24515662809883673,1.3008291867001618,0.64760538950558222,-0.25590571552201419,0.066523286836893958,1.0182301066392434,-0.40524565637207199,-0.64998564196523201,0.47103224829226226,-0.23604037550566268,0.21788574606488012,0.74729378880851038,-0.81374912961430568,-0.83177650897915401,-0.49469654243936212,0.38000036856099828,0.7554787888360649,0.67085234625535184,-0.18044988074479293,-0.24224268147246306,1.6125580316312325,0.17897168839579355,0.01443351176976055,1.6913187463510084,0.20497078902403057,-0.59640604942204078,0.65165487080523499,-0.66999247186091615,0.83102246037094307,0.27126950626216284,1.9370329510150446,-1.107485721224315,-0.73427098596657259,0.51506629816281324,-0.85079734650618921,-0.73125245388078508,0.30561836369475565,-0.92056168874510957,-0.75381206006921098,1.4334767675488767,0.45572363732457111,-1.8912951560444113,0.34235132655002948,-0.95171790140223489,-0.76067120036801095,-1.1415372300781648,0.47060659314610243,-1.6688494486487826,-0.30169136048573975,-0.58129513279846623,1.5035961706385643,0.83701990709431107,1.1816438020235056,-0.50432363789563062,-2.0972107991735172,-0.10816477906095093,0.1760323256806425,0.78967424881891535,-0.107226829964093,1.3634613467593588,-0.8055929099145871,-0.60421863664647524,-0.28335690351226506,0.61503832246027457,-1.1510400550266342,0.16679069717939618,-1.5310105891227712,0.52611021302256411,-0.3132580980513035,-0.082552063881905127,0.63051351908870734,-0.27585287118023577,0.16617024602265484,-0.87929791411931646,-1.333690951842013,-0.14245759362425037,-1.0820089258364285,1.740722005602791,0.82229467734234352,0.78662642584087206,1.2789242283074764,2.5322572418589591,-0.40526960166447124,-0.4354279639149547,-0.091700255893051252,-1.3277616566586921,0.98889754643068628,1.2170084742083689,-0.90702833578869668,-0.88460799179623872,0.17810854151843708,1.0023679396982608,-0.26400048086719829,-0.27210236935143889,-0.04646887433712165,1.1160615351590941,0.32957690751076052,0.96164202997481107,0.90734199688791284,-0.85791064644471993,0.1595032760985842,0.54979221416244228,-0.039954207552141782,0.078582900923633195,-0.81367721880149368,0.75462481524666691,-0.97764793596944677,0.16773584459191843,1.4814417449204331,-1.0827000285963386,-0.38043548552414308,1.4092735011989157,-0.59741679733048969,0.29933576197937267,0.26312683580283897,-1.0217331335728446,-0.82634515178477408,-0.013693178373561935,-0.81600728610422579,0.069248384133659024,-0.86956870830881394,0.48655659746711366,0.57605018107928729,-1.7654781049766199,2.0061656991088066,-1.8341459738196253,-1.3040772391011333,0.00060934373387666759,0.12627505883420154,0.10816545328581004,-1.0307027536338274,0.057688616703052815,-1.0363977281573136,-0.28254812352032099,0.26861866173903171,-1.6013217655833287,1.9393972472271879,0.14064933749009981,0.41914673907647237,0.43849117356619727,0.23429283270864362,-0.64173636446006266,0.60944904901569585,-0.41548583556367202,-0.11277373320779709,-1.1576853196394172,-1.4555167173031995,-0.40569031657354432,-0.69941668743878393,-1.2641457598556936,-2.1495941445284741,1.3773356305325,1.1102092757106423,-1.4363004381890734,1.3353612197546798,-0.10922878879958214,-0.54918210714560023,-0.27067405502449671,1.3035782016072932,-1.511266106203905,0.21392920106610241,0.48488312174153897,-0.076574318736844005,-2.1760230566174608,-0.75218694884359272,1.3691979635856111,0.30387053435231787,-0.13443492335132623,1.2128798781155814,-0.87950039172386185,1.0209173195041628,-0.61283766632216241,0.97587358166781768,-0.77277398982642775,1.9107486699565246,2.7290588459674137,0.11522517348300482,1.6849266993886738,0.59364664150743096,-0.47416408555752465,-0.18288193059930336,0.5161878492975156,-0.77490766149137502,0.73545330879952731,-0.18196572723999613,-0.20049538412803247,0.13691456939818381,-1.6378741834718515,-0.99881647556816733,-1.4503756604412208,-0.64610342202994708,0.90904210509606231,-0.066569170608815106,0.17768977639899275,-0.91644773256095557,0.2680713417710277,0.54614822747051028,-1.1978531516667679,-1.1808106070863882,0.14177319504521588,0.30941368575785239,-1.6161592555229551,0.49846899680011647,-0.29234278052028351,-1.2672752383916071,2.0363952476658946,0.75804958041530479,-0.83242424333736043,-0.02695673622323129,-0.37662786285989042,-0.31796640762115491,-2.0889929453267344,1.7833964874736059,-1.4261514224638208,0.68298969463859038,0.42695443099610808,0.47487275404050006,-0.25527650456119183,0.43941067702071462,1.4107287628029201,-1.0206265543101598,-0.019259159110532449,0.42669992331434226,-0.2066211276690893,-0.82957788191057158,0.33715789127036927,-0.72447605959295946,-0.48381473816402804,-0.020750616346985475,2.9192911000526847,0.63364796100135357,0.49347474580244477,-2.2705912049620003,-1.415805830324669,-0.2575962031205653,0.079958664997210799,-0.77451329654609724,-0.43473002317135323,-0.70507722449267851,-1.9292983467111422,-0.70489380049509431,0.23803125040262438,1.2301125729244418,1.1857957498681875,-1.0445904138278166,0.00923844715593603,0.41684561971469436,0.13097520130709817,0.75551948492609544,0.50185881801244847,0.34789469870779871,0.23244211410949736,0.38366857415804045,-1.057133594866001,0.92965683665723142,-0.35601632675167499,-0.47042672694496307,-1.4486058577626371,-1.6973453423439409,1.4594187266731331,0.42627908886492627,3.6898264621891821,-0.53353309602792887,-0.17457959396220502,-0.81896869635502767,-0.92409052253872914,-0.90715732211688727,-0.70634104031308387,0.51679929035320293,0.26476019803820444,0.91903020873301411,-0.70999076601273614,0.39409674480907109,-1.6578851836438617,-0.47928825605485431,-0.061989384607357569,0.69918160338301039,0.051505092309489478,-0.70732553472235404,-0.57029697780516941,0.68980704649158453,1.0227495906779849,-0.20368257451371208,-0.17048968905851375,-0.79100719318274704,0.68008469226204671,-0.397411409239803,-0.57864674953613049,-1.4700778173463185,0.56625976134857015,0.45889002167114989,0.96791029981839827,0.63599400000294737,-1.2447906801857895,1.4042033627846033,0.16162355514827223,0.47065864141107128,0.20706421540754177,-0.89394566683925769,-0.24977677064514867,-0.70965103871811119,0.81415107059029823,0.61968607904658968,0.33789110663722094,-1.1879883201062595,-0.3359026857734953,0.31748269702606619,-0.30667758063619555,0.15698401986350835,-0.81349814197828474,-0.4421836308214504,2.29376924332766,1.2488932675436426,-1.1292192814096764,-1.3202590315674325,-0.57839313524533575,1.7328592183873102,-0.69276663354841539,0.26147399943909411,-0.74017617262016866,0.041193191609666995,-0.61990919406019429,1.321983456822597,-1.3986679199963237,-1.0073921848288088,-0.3752782170177974,2.6134387441802716,-0.052255201311404514,0.63714223615297572,0.77477445266589406,0.36215721346002644,0.20353216989283129,-0.49331025046097698,2.3918828507392642,-0.88340426790375515,-0.17302627600748419,-0.33433643912632238,0.76256371404623879,0.76038187417564351,0.030467945261667507,0.80629636906790925,-0.25080071687293676,-0.87822898529377236,0.23861063952387337,0.025613421551392936,-0.0029831613037651222,-0.084492102626222879,0.29317174492206199,0.00060564353837388812,0.40476852122678264,1.4017382709309159,-1.2160423586953031,-1.5574720342742192,-2.3349657743604806,-2.0405637845762881,-1.1894491344162141,1.0826159720531228,-0.23241964835089837,-0.54646166894316339,0.65134831844963847,-0.38424515489575523,-0.034824130696527282,1.2666984541042863,0.92756352875120074,0.33749807189223774,0.15131358551513915,0.13368175104877744,0.85193287659813677,-1.8079519470355283,-0.24980738746097778,-0.91139696882952081,-0.23491271504856914,-1.8670508943242501,0.15081229422054016,0.20299916639929025,-1.1281203248418046,-1.0840525607052662,1.151297255824512,0.9494574730450811,0.17667592562977874,1.0940412033410589,-0.24294417277880756,-0.083360400026820561,-1.2770065858820807,-2.2230446662791548,0.0051732820562784389,0.44343013092504108,-0.30713456042678444,-0.31506638202225551,-0.27767090886114137,0.064792222827526821,0.023131116062388324,1.2937909010983248,0.83029137731184677,-0.052991871884297256,-1.0023179341543846,0.3152792945022263,-0.39800868310414445,0.45523541579456472,0.4615163318619625,0.19155609220981712,-0.26164487097744205,-0.6274455059859696,-0.25832151987287977,-0.31691288745640689,0.94495324892714228,-0.52118895855392877,0.43396428722557667,-0.33895436970194875,0.0074514366630015596,-0.78230631889309554,1.3474654070074583,-0.29467491533794316,-0.5074110577077986,-0.50384257951507117,-0.89284232900467042,0.64588672673025682,-0.6460286942704736,-0.58124359668846259,-0.017887286860348187,-0.80307074082536234,-0.40879543442149324,0.28543719686379682,-0.72218806562344562,0.076588827890471861,1.2107428319766989,0.18738451013423649,0.50502829345682254,-0.084053130935744111
-0.4643522348474744,0.73099339886998682,1.127677691756658,-0.37789665681654716,0.43755718691951656,0.094173089334234059,-0.61321442592588027,0.39301349966865323,0.9251760595300067,0.078650994757370474,1.0033146366294419,0.90015513867461527,0.51753486874587185,-0.96463600352162582,-0.18083647434594646,-0.47013201969389407,0.46653032143467277,-1.1162129772725846,-1.1658635616390873,1.1973319454645543,-0.81277016066007257,0.24850439975732802,-0.27403484654287502,0.63069122397100974,1.975619785212567,-1.2211661898629678,0.057629420933499396,-0.50573980648324635,2.0152460319819472,-1.5380358947454502,-0.64489512851786246,-0.7341651188632814,1.9179812351840637,0.13499753015630353,-0.80526744761455327,0.45505074350063124,-1.2578181552127805,-0.19854630803799603,-0.88343024223058453,-1.2153213027943583,-1.521061793011794,-0.47198578376865308,-2.1920857508256342,0.32248714982987492,-1.7734818810149069,1.3763138344847159,-0.076872330377971018,1.1160186413197111,-0.95648350070179355,-0.43636164579357678,0.23283558436636076,-1.2124020695591591,0.214083314916651,-1.2693662642116259,-1.5198048957953487,-1.2247838546535379,0.47273736159871727,-0.18445791088981406,0.31897224691885573,-0.066330911229887476,0.45469937653070003,1.2260751475900267,-0.32723021212126763,0.84471857741930267,0.93525375611096262,-0.70548520920321445,-0.7689371633230131,0.63609648331564206,1.1018266978302909,1.386963639027583,-1.887884394734233,1.1281300491930468,1.2627411513281357,0.75836774282824049,0.73882564451567379,-0.50531022051960384,1.2563581961892392,2.3177984696358012,-1.2909089679785917,1.1789806082594192,-0.293463206271945,1.4452015955906976,0.38703534441927423,-0.090027832200420488,-1.2948832411651499,-1.9660187582935549,-0.18133746499044001,0.085463251293304704,0.62162561537734706,0.11321121857384843,0.36703214106426313,-0.27006210937794706,0.126561982397428,-0.50692700812853431,0.91169448773996575,-1.0445958390364334,1.5084097122828317,-0.077765521846441879,-0.75941581009788173,-1.1464890489167556,-1.7002537924048602,-0.67669187002844178,-1.2390982078577546,0.15727256099738748,0.74279912260187364,-2.5846574364933854,1.5304824254380314,-0.32127154755221843,0.091281892473791842,-1.1909645380961822,0.17761585576766653,-0.91030009854648664,-1.8296354064953095,0.16586084394629763,-0.85868596959951882,-0.20430129678892392,-0.27916780089306287,-1.7037666147949835,-0.0020429015496621072,0.13453949009423991,-0.37781278615040875,0.7921723458037726,1.5076306109365243,0.11949331026009281,-0.073155028169132746,0.14683967645073231,1.139074054969877,-0.92805123555084168,-0.9255542124242897,-0.83374887301846257,1.4852960910384938,0.19991538007001416,0.97642449501258965,1.9496495458908358,1.2681929816617927,-0.26571915087931602,1.6810289178826514,-0.69568469603239902,0.32061563117493691,-0.013373567290926574,-0.86656129935235959,0.42263218390377383,-0.4244869463434332,-0.15312784061574697,0.50132039255038963,-1.3244646401726889,0.60116248584878518,-0.69929929873443764,-0.8739899552986361,-1.2251929717648766,1.7894317769497718,1.9299114247280755,0.62349043122232617,0.63593751243351004,-0.42625691045821018,-0.54247254979214188,1.6460599427035401,-0.37166392030946538,1.8694533134145648,-1.4630886168074926,0.65786174313721613,0.1542211134072303,0.074287410048667263,-1.0881432651308731,-0.99413706011025005,1.1853124876031707,-0.2733091163906769,-1.3498240536941013,0.85446461897190973,-0.055679332613126034,0.50077125062780126,0.18195992235401878,0.6415884716627811,-1.0281648596163129,0.51525476834062955,0.17199341653083322,1.5370923662903975,0.97875792028220721,-0.31932196087465686,-0.1359795328812235,-0.39162053119282209,-2.2189910855164903,0.55184479715131729,-1.485021882770696,0.64149470293544897,0.83013510854328143,1.1493563010035743,0.20865077026158008,0.023080914078008451,-0.72960711934662414,-0.78575115879588608,-0.26863251239834873,-1.0757972025149902,-0.11248796046521788,0.28605965737264555,-0.22175222824231153,-0.5300042159882149,1.1281002135483365,-0.22447458136725856,0.92922098994025815,-0.50566304042790466,-0.17657139846520262,0.44701193700471242,-0.85561985941410723,-0.61586384669064009,-1.5950709501367568,-0.010671397107429747,1.4545358572693448,0.32968713542873129,2.0770092961506181,-0.1289728828840096,-0.2207445008931232,1.6074888759596639,-0.54514281309272561,-1.0399257314769843,0.51814195785045736,-1.6285119420025216,1.3623627619882854,-0.74353039643563312,1.775756027840212,1.2063732161777407,0.0077587054202136888,-2.0322849138149803,0.85031149841225639,-0.49709112337046146,0.013602602123273607,1.1038047323727522,-2.1702835227071273,0.12965272981344786,-1.0441093732637097,-0.13871783365081458,0.49758638866533811,0.069967516054624312,-0.30075839047525171,1.3358232836982911,-1.2658774459439082,1.9521549673238747,-0.087963505993918417,1.5313739927925414,0.92777521734221324,-0.82420045101875872,-0.25545893728571434,-0.0026038009589603021,-1.9850059321074036,0.84638662704789513,1.7979513538025749,-0.86966435604795511,0.20146476569923458,-1.1544201367987768,0.12894970978961659,0.65928012700884231,-0.76690561902898824,-1.2701983063594464,0.19516352787872335,0.18581089249457522,0.52145848925419891,1.5080855638232502,-0.4752504565906025,0.0086719224375788988,0.16652206571123906,-0.50485682321424785,1.4414000132838669,1.3178874297497236,-0.97523106864686437,-2.225060493759234,0.59204860904834844,1.3549901587852267,-1.2465582490863416,0.53775127520688348,-0.81936680249225835,-0.11064032834681259,-0.55765349733000968,-0.69653095279743571,0.78862246796902524,-1.0506673652281493,-1.1468669487560252,-0.66465388071142295,-0.70112789846238999,-0.67577186184004157,0.28844795364806064,-0.3415940884310058,-1.1645493327656229,1.0425892621026254,-0.10656932474032398,-0.16462775033584975,0.28751883189176042,-1.0849200301817459,0.27675196934049628,0.30932740032949596,-0.1835077289419805,-0.87542923945331363,-1.775524052307464,0.29295780849849923,-1.110290040397194,-0.65560492793652925,1.0045717010872608,1.4682373895426089,0.58115193704739643,0.80396991361688974,0.19075204063279663,0.55779401515971894,1.1296890526063696,-0.27875806385830332,0.31672646624245643,0.67754884627654133,0.40366495659171236,1.5680269694489914,-0.77052557736000205,-0.021573966681002862,0.31477801880162271,-0.92655064615851412,0.5828022899270936,1.3553435112796326,0.0099860548795085661,-0.82077848111812512,0.46208480698943871,-1.0462234373575219,-0.17969200957502152,3.4920284837882649,-0.29416068929313438,0.18242410642957235,0.35484377994068683,-1.2762630906123755,0.071672898592698056,0.18830249663759852,-1.3564561691973145,-0.20776782079330458,2.3245568869653992,0.97554199790474505,0.30194911951099612,-0.064341244932749994,-0.88176151380464396,0.5935928578709142,-0.55067718489590478,1.9414812955841108,-0.021107187412905147,0.28337011467343609,-0.081856953458976589,0.13914540255810523,-2.1074652662106015,1.3025724111188397,1.2957274813675035,-0.63378843466033752,2.6718000743512658,-1.0930843554568168,-0.59852211422501933,1.2077287093972189,-0.29298832415980097,1.5999224748834509,1.0978700906179231,-0.53378242284408339,0.89461102900311607,-1.285729258173707,0.72897092805918429,-0.35852742609655863,0.45459679853454826,-0.1374676590884755,-0.96063763786782996,0.76939832907989769,-0.72351438916231714,-1.0906132435243465,1.4935387646698588,-1.7409053057845052,0.32826701307894907,-0.4327398640028422,0.99895631292888487,-1.596802449713234,0.90054575824554928,0.86300075207680249,0.016230638804753755,0.32321320658112596,-1.0545719884376261,-1.3014638674485057,0.38759830902063214,-0.37287003779279221,-1.1634996651464518,-1.2164402353883315,-0.79912215336680781,-0.91070741690014267,-0.19219745519444872,0.84368695369036817,-1.1548946747234821,-0.0070229363452458124,-0.30237332656189186,0.41915239376801378,1.2714618492324057,-0.42548222844669142,-1.721356722675887,0.40356192019009629,1.0737592524093367,0.60473498550823235,-1.8293325280016306,1.176663109382218,0.54449071693062745,0.57834836730460315,0.98787806258411515,0.95452475335011078,-0.49905896508350589,-2.0788134173863093,0.45060241588878486,0.88227564418995541,-1.0711233476420619,1.147363979286411,-0.21046712536041734,-0.058961971087215681,0.83648524661960644,0.22132264306776875,-0.16701422586237324,1.4781070552815931,1.1795913610913322,1.6159185417610531,-1.7018266055558773,1.128011322759942,0.082281780894517972,-1.40363820324678,0.38278576987464663,0.78861146846353813,-0.11530799927079924,-0.084055949561614024,0.79653468452877418,-0.90692823322168781,0.30247436546594364,-0.93376399868709503,0.15242075718788142,-0.43676190777990265,-1.0093669918591111,0.88891927142092209,0.81453361738434304,0.37065059403765782,-0.0330721725892602,0.17366758040513805,1.3712061843594225,0.80395865034523351,0.28198553987269959,0.70206474463147739,0.3246902248126583,1.9076467289313142,0.067898147625887334,-1.4886903837950503,-0.21179622228412612,-1.0584342719616751,2.2898680092325487,-1.0181973224972529,1.0232066807582048,0.96943063760420389,-0.16726335398867065,-0.29491420763432896,-0.54163883363397758,2.2729675883900735,0.12455370516320081,-0.29134617195624107,1.4233606362232527,-0.32649691843041762,-1.1199724422727733,0.010157673327701129,-0.23960637513976848,-2.1877834847415767,0.2915385734977527,0.67922030320263049,-1.7762397478559639,-0.90479534077345314,0.57654397709836158,1.5177660092677461,-0.36439231955634022,0.26460614701587837,0.87716590089045987,1.3284912617047238,-0.59924546704088366,0.79073833654654313,-0.071968998406050824,-0.65870703229511229,1.0912332763819785,1.334717688864866,-0.56768737089559684,-2.0268634560592842,-0.24293213823884405,-1.187947028047518,0.19167680953983324,-2.2402501090329485,0.96544451098403394,1.7668532412841571,-0.43209083759695421,-0.14232189993675762,-0.92677033018421417,-0.59554290099399565,0.80004639896603191,0.23820681042657157,1.2956461314546803,0.24787649456141778,0.66604827596617644,1.1124339169361932,-0.65273449564368158,-0.093032399222557002,-0.60930215394188636,0.55143398204585381,0.63077221524829896,-1.7286847230973368,-1.1085185888043141,-1.3749031158150975,-0.94834814243534038
0.56872178837223819,-1.8436809928063014,-0.074888379267140301,-0.00081784004759063284,-0.62350797143562964,1.0955009707162959,-0.99548175137256956,1.3097553587914448,-0.36453618717187708,0.016835697356264012,-0.91525424661834165,2.288634127960878,-0.068855649634840879,-0.33803192150951988,0.045629036589464142,0.86024370112963899,1.7342367448411196,2.9922257650006823,0.38046366362819745,-0.71831157187013694,-0.46825730989336967,-0.46833407504637758,-0.71429841771427605,2.0866334836324638,-0.043272128928288987,-1.0152887896085392,-0.77011472013753801,0.77432412122599503,-0.15465936945973874,0.19984477986712751,-1.4895432572630234,1.3117615413318338,1.2463888611220295,-0.41300193252139028,0.87116023063077774,1.0264677166479839,1.4866622791895661,-0.82347739202295245,-0.73996497508207126,-1.2411375178844466,0.72841576046653833,-0.37769701830588503,0.74777934372154309,-0.82268580781985823,1.833416721198057,1.2133851886838081,1.0558099633022566,-0.61297792015131691,-1.2807333120383932,0.10450459573297023,1.8266666818860144,-0.26414207269258555,-1.9707709283374162,0.89104805632625039,0.70402752615721642,0.27892666260008009,2.1722887104593318,0.010558843565080774,-1.7922182310615959,-0.65102575563285936,-0.60408590271566143,0.13373890596611454,-1.7282771395920529,-0.68590846678842254,0.22149132900943877,0.41273060573885434,-1.7065288206581535,1.1119628683187619,1.0142285596141085,-0.48874648855579278,0.72199387163592021,0.10115054933030931,0.15190398074364031,1.132294038486491,-1.0019369079238745,1.1084079129183315,-1.0695442765476399,-0.70232208131112606,-1.9875650588916538,-0.63334333246394114,0.4501692875437297,-0.39049998031944633,-0.6824851310839114,-1.1904028152289832,-1.0358077104240542,0.27199233160089176,-0.39115904324556805,-0.51119733733358896,1.0280105890764071,-0.84872613036947653,1.8172132441991,-0.44481330217449161,-0.7487511633264432,1.6542415700136581,-2.5028746103022796,-0.1141493355932518,-0.27398635637164998,0.8980983117442487,0.49447677273872886,-0.35474141456303904,0.13871868797822651,-0.53740464506127328,0.10999777770546633,-2.4935085899413645,-0.71499179354677167,-0.30669988924705816,0.84494790340802506,0.23002550326892543,1.4046450039267768,-0.79483969550990952,-0.71887550665798872,-0.33328084434760052,1.3493442162323914,-0.24418186259330898,0.8055884349402419,-0.48663126950125185,0.65361014037226417,1.4986261027986074,-3.0248080500376249,-1.0908507486124808,1.8947812006122511,0.59213151435924039,0.78851156426051217,-1.0666574587207109,0.032964648435778676,-1.4962917749602167,-0.35614062266834268,-1.0370284674497485,-0.54341045759723527,0.075888572459262074,0.86476829400084709,-0.20937113704346988,-0.77015745009267433,-0.2548514986068332,0.024857746365431893,0.14902175166208603,-1.5887449039790478,0.44851879281372237,0.12832720028235992,0.21692727540901599,-0.34476046312005254,0.15795384973569859,0.42307530893845563,-0.52939684731729597,0.33348959262208666,-1.1632628205147892,1.837485361397776,0.22112414725759047,-1.9301834919524206,1.2061994950274397,0.90510697037756205,-1.1268908189950029,0.08539238851657302,-1.085631371884616,-0.50105839484857417,-0.98175166264471747,0.32807512454109983,-0.0018557813863837138,-0.35203961747103785,-0.061380443696341359,-1.3861082950029735,1.3581506054686265,-0.6695003766337243,0.7993209625772173,-1.6670542024287047,-0.35234625463724145,-1.8096525220746569,1.1256106692020169,1.1318334709701783,-0.29726503309338098,-0.8378613528944544,0.60260786393659782,-0.69772963561697976,-0.79086175383158652,0.9196761403313668,1.4203761128288084,0.52099572139004846,-0.75761541242787567,-0.14180646630170538,-0.50010265331516957,0.91213307181691949,-0.59243994698672864,-0.0428660885003578,0.80088324136066735,0.2519958302714031,-1.1329404019417224,-0.20181879172054709,-0.1994602185850046,0.71964275478695083,-0.5607627318288485,1.5214036321379403,-0.077290472160551821,1.7062972889072054,0.50822187032171862,-1.5547187840302255,0.67976025531229911,0.96283110574497022,1.0095636710451947,-1.6086474263695176,-0.50997264541958709,0.79651329032847185,-0.25654083881456674,-1.5478211722689403,-0.85563316657972355,-0.42786831781474638,0.26752846837790023,0.038305990971698192,0.24471893767746886,-0.83439140999123484,-0.54214505879056685,-0.42458672904635342,0.39030434086136112,1.3134739215504858,-0.48803385752014439,1.0311994315353292,0.1148378278029716,0.36980293518148455,1.3977407194637439,2.4492876387340941,-0.33464643448896697,0.66627783606996149,0.8534069722255393,0.19429127210930142,0.9795800752435343,0.23912501529520469,0.056353658473819478,1.3658517707140581,0.21316975493903112,0.32051283980950074,0.41197475617142526,2.4889757617536117,-2.3138076209606502,-1.522635656096367,0.36570504531431153,0.91796951764368584,-0.66793622138997411,-0.84987128186191652,-0.59438009903725209,-0.5145886083022041,0.12080645486234047,-0.64791252271553323,0.55837929105809136,-0.93637186199753608,-1.513658331051347,-0.50637568243483311,0.57295155578551182,0.012515207310051417,-1.4004998481514832,-0.80902900400952837,0.39565544938202202,0.60639776099866638,1.1604314364448447,0.13023147659195108,-0.68465873292855073,-0.41276040640582834,0.56537950406066118,0.92717482655312211,0.04530816276357065,-0.17225676053608344,-0.38421423939258037,-0.097619940678962638,-0.5301098269639003,0.43526680663380368,0.41977058240311577,-1.10710399690674,0.40303765050842916,-0.093276689645809374,-0.29128691312975069,0.86113254132004768,0.50585053459260076,0.46013227651721872,-0.77957592010844456,-1.4868529446189671,0.73111316613667232,0.38402576139518446,-0.63060345373041138,-0.11555852762017049,0.18370694733848394,0.24906444379024609,2.1316995749660435,0.50693651213952562,-0.47343906292909393,0.98592052075984238,-0.27864735008959796,-1.4435376521864824,0.17915826482768096,0.92281881596058501,0.83562940506480421,0.76942757864750577,0.25884412885293073,0.69928955474303833,1.9600854281283175,-1.8153272922326829,-0.68728700198449588,0.41128046698784876,0.65207266974117561,0.047304447063864836,0.67767734591921225,-0.44732802460397902,-0.0058222808816525947,1.0510144028507242,-0.63850771970801412,0.41827722372571602,-0.6030134073666964,-1.8939796135037112,-0.80352928733078965,-0.42390377489011005,-0.4347640087929121,-0.36048967428577611,-0.20642673062870159,0.20569374184509195,-0.2332058471894029,0.90050221867614333,-0.20896184271722204,-0.68131156615850752,0.61322135690336022,-1.6224412037469884,0.40053466995555603,0.35585815817301802,0.86786182298788717,0.55271435578305839,1.1046673015627573,0.13134568153039156,0.0552992088056296,-0.98805169084591793,-1.2291027167139297,0.091893829208157793,2.3555724220295104,-0.3730081842655435,2.5933613010590846,-1.3878130659945542,1.4531931414752941,-0.17509968709595441,-0.2301317652099393,-0.26418572743609026,-1.3401272826568371,-0.18523818410995921,1.5443283374682324,-0.16531943918667152,0.14530049693550151,0.91310655461427026,-1.4656556246323622,0.89337747075809093,0.26278611725024115,0.49949328506306823,0.092825734064825166,1.2526841355418477,-0.33850808546919325,-0.96582501431648982,-0.26260240803886892,-0.89558373454752227,0.92371714935578397,1.8550196649011157,-2.128472479181355,-0.56331052107719071,0.79230842237979737,0.43345554273405978,-0.20172933372887411,-0.7472538413460339,-1.3189232430194369,-0.096598006760264796,0.23602945016184168,1.0235566845209301,-0.77100676957547287,0.72519514992829293,1.1728104736578717,-1.858023005590113,-0.7128797544606974,-1.8868676992096227,0.068013277019778315,0.27781105811970397,0.54638740784269491,0.2142922572731501,0.87151312271597758,-0.51361618629385963,0.33669167366114028,-1.0043196868041513,-1.5338556560993495,-1.0424035492146897,-0.71685344366360859,1.3822867951260456,-0.33120513903264515,-0.74484558207291318,0.13797767805554662,-0.61288351225317705,-2.172240623901891,0.56334162417879652,0.9249281553174874,-1.4599126304514969,1.6811472542639287,1.2171819545681295,0.33893148864903788,-0.1169764292061342,0.43894231862530575,1.5494455712229684,-1.1907094884274378,0.53136364317489837,-0.029482056975409458,1.1153483710469572,0.44328611392994777,-1.1641680333512627,-0.93764060064424193,-0.79531327597892032,-1.6484609507636256,-0.23147112334751424,-1.558066945796494,-1.4085576038838417,1.7441229022022049,0.051762500819406254,1.2037932868538903,0.33208234523381996,-0.48093697812985881,-1.2880167578443409,0.7776620372068026,-1.5367338798857595,0.52803893752440467,-0.09497060499006002,0.78539015162186099,-2.9007963837015165,0.83764227252759171,-0.013245574195870408,1.6893362130399088,0.90510818599190768,1.140827926166047,1.5534161285547119,0.1515325034453722,1.8961156884394639,-0.12165855270452645,0.32949655711452441,0.34047424434171752,-1.122356649910734,-0.49754887966726014,1.4227701442172709,2.4389176535497006,0.201933976118603,-0.98870369585009066,2.4833387525225121,0.053053546100232135,0.46638870880289984,0.19186887230971061,-0.18537399047228262,2.9067886147983644,-0.83300064075267044,1.2541181949573983,-0.40066268297987745,0.87601944182091218,-0.020930663794433993,-0.73642175483292938,-1.1529021151558052,0.21908299191292244,-0.24632443300112086,0.85199075093101961,-0.25019508081137709,-0.96272927686979537,-1.5081086871116711,-1.1632987509132584,1.0081441923997296,2.1052995399025973,1.4603706670694789,0.80022323840102449,1.1779725934876644,-1.8047467215489323,-2.4279830942070237,-1.0525059052784942,0.80424243582060406,-0.029404301455911299,0.40211462674315668,-1.1197773483140279,2.1004485899045253,1.5039606128535783,0.38668035935266953,0.97485668596428354,-0.83436070548594243,-0.13727409561152704,-1.0405687399302666,-1.6320197882821412,1.0174174122915536,0.21761011260849283,-1.0671851624684316,-0.10003289110488857,1.2954285586814418,-1.5309453176717942,0.036120495775672543,1.7362051403590291,-1.5645682720634164,0.94315796617251302,0.2671243362872735,2.7473522822734782,-0.62176258250861816,1.187970237650942,1.5938516493525201,1.0134032607825458,-0.64812045526941842,1.1166580593933104,1.9258173281400839,1.890556251960877,0.10427249213095539,-0.35981627981393982,-0.10726931160404106,0.75659468919444517
0.6011456385988323,0.17624915048132833,-0.80108714559932848,-0.9760753113697247,1.2170022895827761,-1.4209991606117576,-0.45623484187423829,-0.27416310890960049,0.70663884529554566,-0.63004959749389178,-1.4733055205050283,-0.78389842254202946,0.87344335930397454,-0.81102835378861493,-0.92892589073676501,-0.20005965281125157,-0.072807493774820126,0.18334633869988679,0.83114113925932753,-0.5411605157048105,-0.85594705500259005,0.35850775423764109,-1.2703744154854806,0.57843701130606828,-1.2059892392671481,0.43179284220655983,-0.59594455466092433,-0.7374395093318068,1.8277956887373008,-0.66836533016118149,0.61524268978945029,-1.7887789093208539,-0.59413913365860282,-0.010256460715609182,-0.84128273834380962,1.3251691116998408,0.16013531803724199,0.12902051694904129,-1.5249000375745347,0.050137713543962494,-1.8102335572598294,-0.95790491834483804,-0.33824695997920851,-0.17817400571205771,0.5426616027444966,-0.22315265906509354,1.5945244054168208,-0.26081239193053424,0.31145492474179298,-1.1875060341045085,-0.69410964971377576,0.073364434519284552,-0.0021236725637779536,0.16194358203348833,1.6209247846448744,-1.5447659167921914,-0.75487664698787316,1.4958896158772503,0.11394086675291611,0.054381786693091294,-0.43248856242047706,-0.22209686814717122,0.51365059961893689,-0.19338585781744572,-0.55396315911024152,-0.65557812310892472,-1.0961836524285162,1.9911521352022101,-1.2503813235724937,-0.59723558862699111,1.0723685995641905,-0.26683637465100501,-0.16833334965615868,0.034209229481182116,-0.23641554428258263,0.58812576618156398,0.34887699488915197,0.36971249861056926,-1.6273168689201825,0.2269921676693587,-0.45045595056697862,2.262102753983025,2.4653507927076417,1.4452491669001011,-1.8765747352632969,1.3312681503329873,-0.13881422487673606,0.032604186457962918,0.78914269483167576,0.15587443177998392,-1.4405908886631755,1.0043259996642258,0.86955267867082808,-0.17305133662040631,-0.25965032181514469,0.18460850333124237,1.3910728993818007,-0.68708571503629345,0.92605050427281954,-0.81285585686314443,0.63013810013562399,-0.39018508709543542,-2.0487961847644574,1.1476080887549758,-0.037347029894639935,-1.1167080586198221,0.087329602836198311,-2.516226779773036,-0.99760688728055247,1.4737089482795549,0.21736507883377479,1.1917590026640086,-0.37371562363390393,1.502267854363079,0.74951938652946049,-1.0937677533382453,0.42849909503093808,-0.45487972182628833,0.96451503428101659,-1.4925045169763642,-0.42717038293759074,0.7944168517934147,-0.90828119967167442,0.76648433773966285,0.014693734856883559,1.7902164155809324,0.30704382565456356,0.13400667395134361,-0.146728005734137,0.57964798684123742,0.27443834228803288,0.68480626086214624,-0.023056210529830937,0.48317033795427305,0.93146156002476999,-1.9549261177903463,-1.1230721612911161,0.022607061017472244,0.42256838043330863,0.16216536357569133,-0.0507350492864602,0.38872944093859202,-0.26386283228470597,-0.05420437932678631,0.36435599816039838,1.2986944684078765,0.65030973580824702,-1.9858952798546849,0.98075809393315494,-1.7700693049048388,0.40639250824049955,-1.4632788082204731,-0.42502417298421774,-0.29545760881568822,-0.87067167381343047,0.087547580418102566,0.34773322829560438,-1.2090009044418808,0.97880952844292413,-0.075495579511617936,0.98704413435100236,-0.22286598412451458,-0.44927337666304951,-1.2142729802992487,-1.3360463376004492,0.62819650889562273,-1.1015998288353612,0.011783009647298172,1.5917424881834035,1.9533318298029505,-0.58211655488300273,-1.3622281705099275,0.47394236703550624,1.0309766711990695,1.2567216075983407,-2.1238254367011407,-0.28482774089003865,0.7210958889890805,-0.95503525663942967,0.74352751643322379,0.19451036956871309,-0.66913026864306635,-0.28166186309139757,0.14788735020100854,0.98276295428103688,-0.9166628301932449,1.1776340429073897,1.1506255124109885,0.90737410099743199,-0.74781089813885182,0.052597407273075943,-1.8515411360387255,0.86307340912339514,0.45232242310962634,-1.0062520352745976,-0.75169301177319414,0.79449872266555377,-1.5512982801722917,-0.5323923279295798,0.63832038634660082,-0.33761924636111279,0.98070613054016154,0.87026308796733953,0.28634750087346428,0.49408916529678565,0.63549559540362988,1.7642938808227211,0.45335703548025102,-2.2249048095152393,-0.35893067936133488,0.39080072662937021,-0.591144605959112,-1.0068540308659655,-0.64538831188156232,2.1288135167862414,-1.6760886295658575,0.60126082895917099,-0.35210133033549246,0.28904552423870761,0.55435786181584679,0.50670408852616733,-0.65214110017957072,-0.6066255677973823,-1.0735135949323347,-0.73336907603078283,-0.06582432976560855,-0.83670873482430586,-2.4908104450697683,0.78970304643927147,-0.72193424693859953,1.997152168584535,1.0400908276816681,-0.8258712720139415,0.96439228848784342,-0.32776135744902501,-0.24935377258262892,-0.93497255922132982,0.26103704639314801,-0.32451065468387252,-0.3360216520657397,-0.15703010071158099,-0.43865147461504539,-0.4542637640319212,-1.294608215657401,-1.4895936660454976,0.12720253727669834,1.4339170644347585,-0.0088418072695063601,-0.15569014222198083,-0.64862435684837461,-0.10811762956101542,-1.9546467322593626,-0.08384241626703931,-0.76350408151475202,-0.41121028952912658,-1.4632028670847348,-1.3904290899511635,-0.6240141743066554,-1.1150100032562873,-0.53529895072965517,0.94121038207301011,-0.62210446566892097,-1.0923564402893844,-1.5416068572392689,-0.25814084851755748,1.5549253750013732,0.52102289130357737,0.22182208411792753,0.16842888533971087,-0.24269135928009139,0.56491348106320971,-1.3024693814100499,0.63553002695767646,-0.64750580470188568,1.7579395196880336,-0.64733539488897551,0.28339446778908356,-1.7324299464814676,-0.24133366387088048,-0.41717115617718331,-0.56700303170377286,0.30820158756513016,0.17510304303516608,-0.28761236900533504,0.10020821219697397,-0.33532280745879689,-0.026584427204288417,0.13780307354258703,0.19097584346203961,0.55141329227546898,1.048436469951868,-0.95410359862899319,-0.71645470249733856,-0.98379539989133136,0.52803200068546152,-0.51383490930002507,0.75538078742852865,0.1950517605608412,-0.63253894411019274,-0.14890696497959235,0.0041092935711744393,2.545386009940021,-0.30451053796910349,-0.89332171568678087,-0.10133091547556843,1.9458388607269772,1.2214014831939599,-0.96287925274855113,-0.69873056144421541,0.23801104517273192,-3.1438560547293335,-0.94014192541813468,0.90391503303972531,0.64624472882163531,-0.21597982569112242,-0.63876483123847239,1.5130469006476097,-0.013104438150556695,0.54841569355954556,0.33475366786121796,1.6288721029381987,-0.11861205964927357,0.47517212557311767,0.011391142159556384,-0.67516965434839193,0.85276117163510401,1.0280176244415251,-0.071958740618099648,-0.59265970013530123,-0.048347436430185256,-0.45731758701709263,1.322608588178982,-0.50773426074583206,-1.348560339696308,-1.6949061159218053,-1.645676861203121,0.084606151576313002,-0.71304920566980945,-0.28995491253797057,-0.13304452598087824,-0.21953974499161161,-2.4419803856596181,0.62569800973195433,-0.71116575962164774,0.2122391194154748,0.5217035291741362,0.20387004513294912,0.44763916053422953,-0.051085160887516627,0.2362471403342879,-0.8371007260120763,-0.13077347708432718,-0.73250531493121618,-0.58956277004051971,0.064706334931279044,0.38713996229031111,-0.078981597563422629,1.0466513551068939,-0.68645748519264038,-0.18293240048862713,-0.18094077808699366,-0.85574110328379682,0.47379015448341305,0.859631998367415,0.56520752589966095,0.58006056402428485,-0.67930191447099186,0.54047945178127477,0.53545381823199267,-0.59479536829363966,0.2554991945738051,0.50251958963917165,0.50029256082407181,0.24073374102078118,2.105963781773811,0.11174846113000518,-1.0329897020612997,0.47844576887535889,-0.76450378823182508,1.0765485429956572,1.1551511918558499,1.2541235006746874,0.30252005331955023,0.67188676735797925,-1.3261992802411555,0.99929093912650002,-0.58079362487813446,0.53667001123098113,0.80057350820130713,0.32426630432088127,1.2887790523205613,-1.4976649224611329,1.0288633118666446,0.1628308013354956,0.32812689184588245,-1.1557029022130771,1.0221378991146102,-0.26945312889098721,0.64578371424283787,-0.50945399173310824,1.6204222714243419,1.7242399753311488,0.72879735939096413,-0.75913042856082524,0.09722252262661886,0.080177706584389247,-1.2564879569507499,-0.096890453677246163,1.3025570885427851,-0.15444929248431039,-2.0254258505448908,0.39422393154380525,-0.72555382005028579,1.3786585800141045,0.1945007983621094,0.63019258338676587,1.2585002360763342,1.2980915443297032,0.55685448236163571,1.1222427993092021,0.50960121642930145,0.89889877785826067,-1.6665206320274415,1.0917783943234665,-0.24907159766833026,0.14232018913006597,-0.058214412472467607,-2.1556334325525772,-0.49238352743979513,-1.1478053978215674,0.38032328962832407,1.2566274757102347,0.32147191969941941,-0.25390507142084451,-1.1882413555324747,0.91674796379116141,-1.4864793276145645,-1.2721501528849728,-0.81477439279986963,-1.0549209467033025,0.89654387727742457,-0.29627032725438623,-0.30396074107768695,0.61869146361974203,0.2948001332925958,-1.2983409745135746,0.43661229950907166,-0.44200794246994796,-0.69137309313748507,-0.91842882997069952,-0.37945486698961922,0.074902374510397426,-1.1205035620403323,-1.0574141849436336,2.5502169065978957,0.016453496509969801,1.132447728751268,0.38216627324484298,-0.25326238221045011,-0.96156544443366376,-1.2743216423605324,-0.750039914006562,2.6419737103509631,-1.1416370077258635,-1.0967111608168445,-0.52660336835764054,-1.5542983494700227,-0.3598444979512937,-0.82715191472797611,0.29541975798837694,-1.1740526492189503,0.0035321222689633355,1.3609842136906174,1.7581180981352709,0.53386948000418277,-0.36699389372222352,0.88382663216621049,-0.44353878420766457,-0.79649113551352069,-0.53191379154619656,-1.6014660393628597,-1.6026737723589715,0.042230497415158469,-1.6338697133002191,-0.36313819838507794,0.11081699301048265,-1.8529606865217818,0.078037633333640374,-1.4436640300356234,0.86646892346665627,-1.960847056262371,-1.5066147706682647,0.14697537610490655,-0.33927776247917923,0.35814795361625956,0.050276091063186402,-0.40177204648325554,0.59504943501342089,0.28035305672112748,-0.13488592774073341
2.0794957443281374,0.52837404544894817,-1.0903581764766492,0.73943464444590401,0.39031377446052806,-0.6160363588758353,0.063229853343055337,0.3188419553700203,-1.0632614152970634,0.1449156512054483,-0.21562629115606385,1.637637916247124,0.23280977343301998,-0.47158522428634575,0.77156981195384533,0.85899309159084614,-0.97672855885653764,0.50556792859362998,-2.0886630379782258,-1.0705934995679633,-0.39563307252072216,-0.20396228936316718,-0.80542027959101714,0.98923184013550292,-0.40872290076310092,-2.179939097356598,-0.70510367141069341,1.4725573703282886,1.2553125563576455,1.0236106504714095,-0.9122324562723555,-0.2706282792627443,-1.2531988572607216,-1.1222232597159174,0.15416812791526188,-1.3559229194503473,-1.3849467144212746,3.4596317013292319,-2.5179078998741291,-0.091542840946959136,-0.27509406269446429,0.287356534998012,-0.1768831098530062,-0.33895144904622071,0.67276045585040678,1.0847581592134889,-1.2688559859542499,1.776984173047133,-0.41999964080247765,-1.1366817174564474,0.77819340272383897,0.64820441004624862,-0.60205187085428047,-0.13947629130907352,-0.49095859031415784,-0.6676558369725013,0.97721727305770778,-0.5580935444003523,-0.7881599477048753,0.47936551942583072,-2.2705907581507252,-0.68902813893090253,0.2015426285405689,-0.60128903951874779,-1.4319807309941477,1.1507287985251577,0.5867172722825702,-0.27548917585556532,0.045779962611944926,-0.34486713447970563,0.69210165596096351,-2.5440283110511981,1.9705085573134118,-0.54034210298946495,1.1053498067957941,-0.91379253716867404,-2.0656646079807408,0.59375461923125417,-1.065806654323519,-0.5727803843381547,-0.32345267189327098,2.3055580348920217,-1.5877017813951382,0.53566067754015412,0.17839999955686855,0.38918294969436751,1.2314730582689601,0.77938149051158967,-0.45308366076282613,-0.61089318949728233,-0.21621647554928167,-1.0260663098004115,-0.014777840022669226,-0.35435780563572522,-0.27845672627173368,-0.85574901764881228,1.007183514575311,-0.39137117459419385,0.41233517777509349,-0.40591886004906413,-0.46119109884996934,-1.0879499657848324,1.5157340370053076,0.13252633665187796,1.5154017637176804,0.86134191454488696,1.3729816169506883,-0.43835770452956746,0.99291113550389898,0.54010616929694011,-0.24836124241801502,1.237678955957924,-1.9700613611222721,-0.3307844448483121,-0.58152373476196928,-0.70977095954919356,0.11387364181240239,0.75674726915685264,-0.91126969344240616,1.2000203067948514,0.11278764886997554,0.92920758397300907,-1.0122414672951694,-1.0090798515778643,0.70598460389604278,0.27947660914835265,-1.9527453016416516,-0.91490279560390786,2.2076607046841152,-0.38506415828087243,2.0725171078829816,-0.59034193008736469,0.080269217634175605,0.82137205707722605,-0.81786262471048232,-1.8243218106522279,-0.21324132821832761,-0.039361015756375038,-1.0411788076181323,0.76221017729276586,-0.96518346019414381,0.72633570493954314,0.76103220258863147,0.067840491166838518,0.55189716151250745,-0.30054203239554966,-0.94468209388039837,-1.5893808662024924,-0.76756023592624489,-1.3548699515033931,-1.378869321089359,-0.10142774903949205,-0.2554803975213607,-0.13757154901829455,0.91319654534478178,-0.33807006363315095,0.6178086949836965,-0.40826474269189117,0.30015026694052077,-0.98835273482264119,0.44292241994906606,-0.17903216992138163,0.23242189728162033,-0.65951935923249083,-0.69184645060066363,2.0736470677684888,1.7411485306183889,0.39908017230800974,-1.1449726569519489,1.4804068075334251,0.75031735000978084,-0.079249331978667154,0.087645215797907267,-1.5434092227460472,1.2432786508137919,-0.25723861987083918,0.59716507062822899,-2.0145014892942474,-1.0693192850661244,-0.53783958416966993,-1.6409726133521554,-1.0850749900854388,1.1086450023763643,-1.3502701894819402,0.016759809280078239,1.1803217974030511,-0.21449928785351194,0.79549955480895107,-0.29648956335324089,1.8476551777286863,0.95303234874352827,0.18373112940802017,-0.63046691281334599,-1.1822462552023965,2.3179494164055896,0.93426231148601535,1.2392509241679481,0.82643931105888602,-0.71105003754170448,2.0342978048423497,-1.0578797966251863,0.084342938621759497,1.5857514199367124,-0.44329469929017806,-0.19267829596819899,0.010180700092047842,0.19219898266215585,0.18221501763061884,0.64806629760138235,0.61003147255713164,-2.365718128463604,-0.8684763797500531,1.0135626707259715,-0.92065375584108999,0.3092266722685455,0.39545929351071435,-1.4096179816555252,-1.0416615075231928,0.66094188443276203,-1.1126992713106876,-0.031067655804377849,-1.3509715758639558,1.0050089210008559,0.58791141416776616,-1.3401772490662429,0.44561202379772374,1.6030034574675447,0.80343090392802075,-1.2991154829887093,0.32891317472986226,0.12746416802530156,-0.62679422891819725,0.54269416398795445,0.15558164102656283,-0.7722624470343683,-1.4336631720084405,0.39700009974821515,0.30320338241657679,0.52389450317897102,0.31304264149223482,0.38408466013190584,-0.92456743962343413,3.0102659460229937,-0.95993236847209384,-1.2000034984486909,1.0023117296497606,1.1141155210863949,-0.32655492930839891,-0.22941326078286767,0.64348125526573396,0.75458649171859782,-1.6682461190382203,0.19727776665176358,-0.24159522740694425,0.30105949922954983,-1.5604078744340615,-1.0032352968138525,-0.22610857867922518,-1.6793558304276199,0.7876095480831754,-0.97969377059395235,-0.12400433156255544,-2.1045652363737353,0.15812636458577167,0.32600009518290551,1.0809774979629077,0.32418159694365112,0.62919768105541662,0.40836876948705536,-1.6980012692551394,0.9281929080105461,-0.45158420902139873,0.25550018152388115,0.18270016516944534,-0.42574456483714329,1.2432489210628739,-0.5452437358942247,0.82457441793660213,-1.6780199516484817,-1.3217265151027873,1.8210285410998162,-0.25856810077995862,-0.29482081698399015,0.63889499816722728,-0.65196026104489213,-0.14360935141824441,-0.83257235616612124,-0.058258706084281332,1.5878329284598185,1.1111661479839419,-0.15325729526576112,-0.36766424607264914,0.3917730064805976,-0.059033116220724394,1.0514578001980608,-0.027725757176269815,1.2626533587429096,1.8254068935251542,-0.28348082826270654,0.789313171015252,-0.92135781051701904,0.046740638649221053,0.32493263262733124,-1.271483085577696,-1.0139504894160203,-0.93645017056231661,-0.95064213613358928,0.47686729677987155,-0.66023250753783325,2.0467148053204038,-1.5733631524388676,-1.0297196953504806,-0.8923711497251664,-1.1875415038748813,2.1194634113433137,-0.25169737216101734,0.21701845261813277,0.9271248535048946,-0.63814529598840475,0.74950659687187826,-0.20261552108623956,0.098696063159873018,-1.0900604862513539,0.63165763714636691,-0.3999519275770696,-0.75770732895238924,-0.50660375793765589,-2.7554715185011625,0.060222916413159092,1.1644610984583021,-1.1794600384092582,0.41107263020360107,-0.35450781695568395,-1.1076537873070398,-0.99786152542808704,-0.70421645945297129,-0.52753934825858129,2.5818828260794944,1.0298708507425283,0.77611058557124291,1.0337276053342741,-0.76911680507468239,-0.39339537747442777,-0.12935285131862093,-0.52105115947247582,-0.18143372254927567,0.2287895264083597,0.81247964070416723,0.27580936126080896,0.20328457380335593,0.68476279108742499,0.5335438852017943,1.4987949086933965,-0.24447954776365491,1.3779390531387112,-0.38422881317150648,2.5229598241953193,-0.41321460696979512,-0.67470006535007587,0.55633669214247494,2.1037088017229473,0.57707474056401875,-1.7178615544594151,-0.96754122437415424,1.1103648641336687,-1.0742020607020875,0.41808391113301385,-1.5940459637112914,0.79731497177057264,-0.22614804258331347,-1.9261681854470287,-1.2698718206695019,-2.4870259981580354,-0.33522790964901045,0.8852762223365761,-0.81966236327863595,-0.45673548574986789,-0.52102660227602593,0.25386479966112491,-0.34380061761370634,-0.21906104300462823,1.45329913464774,-0.24847427258542881,-2.0632793176098976,-1.6261612551717801,0.037311092432828527,-0.32503954779859462,-0.13734979370923192,-0.72021463338831515,2.5888999876641914,0.48404438128914351,-1.5309299911980794,0.48975653242489697,-0.24379419975161939,1.3661290262574584,-0.796875679737575,-1.145066499301804,-0.099500605064674286,-0.26136600341218047,-1.1569398074549868,1.122681785966624,-1.6343902553265914,-0.88043329554719441,1.0732873875095956,-0.37090339138070361,-0.83223032475117065,0.21284800781484839,-0.85974491535618247,0.54061467103026595,-0.33804703701099487,1.1528212514482301,-0.32135042104245448,-0.45170964406728337,-1.2630364254047692,-1.0008251127331527,-1.5638308238290248,-0.95224793795368756,0.17962260714257294,-0.15604413599067499,-0.14119264153995828,0.60745155229696624,-0.30364726010372822,2.0990294483418137,0.82384070514818464,-0.62226808986852711,1.4302461912349276,-0.44847545251495008,1.190258624558947,-0.32724402113268292,-0.72567533664454742,0.75976123590824596,-0.0036090203356971703,-0.60093967024724637,-0.31245341363211626,-2.5389809946690223,0.76051123062072801,0.23531051131163558,-0.65479627254573691,0.073484183685138982,0.66079777173877619,-1.3904379082681613,0.67011546371318609,1.2939214073249827,-0.49895652158092446,1.7850215778733498,-0.47493079095728497,0.73293980057778452,-0.23028282122614196,-1.2232437538127641,0.84839905481781197,-0.40317246670980084,-0.095850707181792061,-0.56119476526816481,-0.045879240595129607,-1.8378877737833645,-0.95125287236567568,-0.50812512875324878,1.2219963060160799,-0.67952943403065413,0.51195456060644107,1.2175720510716317,0.40477000626881993,-0.95010577069895896,-0.54928995468617825,0.76776721290919669,-0.24669393390092439,-0.62270685293569528,0.11651385227074422,-1.5564603846492797,0.11469742078354322,-0.42138667790072559,2.0310559265744748,1.4052063192539781,-0.19025584148972796,0.19173551675699679,-0.64510579738953799,-0.4491941761292354,-0.34677030283797317,0.39714271757443104,0.8613225163837569,0.31550398192042467,0.36977566404104745,-0.92842212754832321,-1.1354144994022981,-0.99528293378408206,0.71468467219590726,-0.22930808727896188,1.2193536818655815,1.2177134679095569,1.1597077452513733,0.19899783679017871,1.2483369898650383,-0.57519059129843564,0.06918651366076968,-0.009833848563923199,0.50471405755941923,0.13479912729247451,1.6465139271085525,0.69248536864823773,0.71769800283368401
1.0741687562602504,-1.7610386116518995,1.7492376794233819,1.4965798688913281,-0.3182252101516822,0.5052974690677362,1.2763938433037714,-0.20485335906168273,1.3339266021220693,0.37807708750768948,-0.61471901618047609,0.29548957981961843,-1.1966513525523594,-1.2322546142184476,1.5720810092250035,-0.13066369044062656,0.39095974807774214,0.24750541808994223,-0.41061371971411581,3.1033689263440101,-0.94015948601637012,-0.24137584234703668,1.6483320159339654,1.919378151369836,-0.44898175430562987,0.95801394949917906,-0.53061466662169499,-0.24112335236101021,0.74807596812321075,0.86621770584670965,0.3420342535158073,0.22802821557462666,2.4270473208850141,-0.72005792171579774,1.4592914585467816,2.039755918098666,-0.73646258426294098,-1.0697514508058337,0.087235270347934421,0.93461563337069664,0.15018516752491334,-0.15911444830139407,0.20564415350605361,0.98831414270297491,-0.83844233695225878,-1.3788051095131346,0.21025025021102683,0.50171357696190388,1.0751299074014831,-1.0570411117881591,-0.29310916010959176,0.55107869674707244,-2.061050793637933,-1.0757302338199599,1.5521121559101829,0.43548890872742396,-0.84962231529952659,-1.2838838196824103,-0.72073831863977689,-0.58796932287509318,0.98492483593206381,0.6683269779417278,-0.059033828863815814,-1.5136693203188252,-0.0083932370000899328,-1.5524733234543533,1.1481543659936808,0.17966817872811575,-0.67298160324970691,-1.260079546701538,-0.35117491904742487,0.4521720858243416,0.65923592540953724,1.3116117839013595,-0.19792927021656809,0.16943122816403489,-0.066859276750230026,1.9116920347815076,-0.25198891696699605,0.65163405551041664,0.84336773401348386,-0.15689194222211902,-0.78879675241705371,-0.43754066816706461,-1.9095223491875855,-0.40367164596168542,-0.73767161761771038,-1.0797929558534387,-0.45840004651262961,-0.38479153385861181,1.6423005777565709,-1.3784289751558896,0.32704876256213383,0.32651080252513354,0.51310085653147908,0.41801148393750215,0.80212293775935573,-0.80423928531612243,-2.0744234718347472,-0.62081748356611999,-0.059930000015878927,-0.23332678528431766,0.46778052354594207,0.52925578379371951,-0.76083025233168933,0.36075093370911093,-0.1758549645966169,-1.2721490581841681,0.39704413240801301,0.89909486412452466,1.6210774298668531,1.5504099297675495,-0.28892141793650117,0.010406847120509344,1.1926681789170734,-1.1938081040104753,-0.87518908311451393,-0.34955995995131561,-0.38208610678637911,0.16197130750401695,-1.0973671051848741,0.94250041507500659,-0.49347880095940161,1.2768933265356437,-0.62443377431624159,1.3325825857753102,-0.88862251536058934,-0.33131250977662446,0.20236374349338015,0.42371559352296106,1.7659115401873156,0.13614294116556191,-0.10153968866916488,-0.48869953796215759,0.25348682150157398,0.3748809630539392,-0.22733550045166626,-1.1169866781725342,2.3633105405242296,0.19450773831831014,0.2857404494307948,0.087384557919843897,0.14788309378705203,0.4212503577527939,-0.45140852500691381,-1.088142170622183,-0.42758286650040805,-1.1475734228110941,-0.83504206308296225,-1.4780911619989996,1.5037751855969119,0.75071356771309561,0.67551854987704318,-2.2951911473665456,1.8624379662703221,-1.1128698561417445,0.94821743925911739,0.20121335764600362,-0.493716267210009,0.76668595985095644,-2.1077480774097666,-0.29672975481448649,-0.31627810180110394,1.1150134145971315,0.74948497542914572,0.71101668933932638,2.2470476302851723,-0.46770062474035756,-0.068623148846574,1.7955219487018685,-1.0077556952629583,0.30563372151513463,0.44862362107806708,-1.7465632694904325,-0.53317499461201767,0.33728859086962132,1.6180379913762588,-1.1878530184347686,0.365416951127159,-1.5370332971100376,0.55181579154499039,-0.40548769387718125,-0.076031669384674871,-0.12838440614875463,-0.65247496502018287,-0.98821592269256719,0.39121185657372698,1.6658031627950109,2.1610131578990264,1.1105082629670668,-0.93113758057947138,-0.40980129021911921,-1.2336395726161484,0.028618894510202948,-3.1271651328680927,-0.53107217450229616,0.012149102317894038,-1.6519540709306542,-1.0785497399072397,0.48331145920216534,-0.72685780126428456,-0.93029774642296348,0.066405915631061754,-0.035614048382495309,0.85700513029241598,0.58342923226537424,0.60984787360758352,0.40547100321214818,-0.38389247610197197,-0.74314042916960099,-0.65335524230220965,-0.51106552512327885,0.8694335620899396,-1.5885713380910942,1.3157763201731487,-0.5465945317791211,-0.56302269267593053,0.69253719823482129,0.38183952800079685,0.97291804031251639,0.30178525029306041,1.1062363733905434,0.47408753251875191,-0.79469582945874362,-0.37436976751800644,-1.5820510450640362,-0.034170995165929634,1.9700000206729156,0.60006589726703552,-0.87572283957260655,-0.20870151864455053,0.082948931845060248,-0.57675495183351311,-0.36620822932382702,-1.0353028785759375,0.36612715667276396,-1.7701354239594327,0.35954345896160594,-0.90802558450304682,-0.3532927733111812,0.81942049835819597,1.5507078659532525,-0.21003184308649384,0.62506292747511205,0.69971180473563366,-0.26291402800978364,-0.07708393223184816,2.8888085289671479,-0.30717024357916139,-1.0178005921106681,1.6130164322873115,-0.49456010848436893,0.83482800047688888,-2.619416505034883,-0.92986056629714775,-0.86601211319641225,-0.19652864839887496,-0.30283145875636874,-0.23661131905206736,1.3106576472577502,-0.76313066285476705,0.6625016435205856,-1.0701175459646679,-0.12536798192922646,-1.5174548781387924,-0.45286446937679475,2.1394566530185606,1.7731555918530282,0.93367976215929704,0.44071947848744625,1.0694061201543994,-0.37981478422071296,0.57073467328214089,1.8646937483009351,-1.8180370655085427,0.65723250722762938,-0.37919678655506006,-2.0871740779485872,-0.90600343532054173,-0.60289325655136228,-0.53850122280214607,0.47210682695626,-0.52994774403043887,-1.3067131776192396,0.53587818535928333,-0.63790245624958486,0.11514923825584701,0.80542778747414445,-0.017583863120224408,0.67465256655531458,-1.1233295377557255,-1.1530717846580787,-0.25035721547796508,-0.18870010175221325,1.0407480015969581,1.4503576938228588,-1.0303002761078697,1.0374164373421872,-2.3643826586547441,0.91767873423653068,-0.4756679596524882,0.14532662994987039,0.0046735572526030384,0.049481643187251297,0.47685439305142435,-0.037121244889292825,-1.6225729800206659,0.97248265721756133,0.90613278174481671,-1.4336198656891515,0.87604403977624012,-1.1396797109211991,1.0611036495068811,1.0791751886634238,0.18276205676917373,-3.3803221412657463,-0.39804274084025432,0.73748580692677101,-1.6120375745499915,-0.84674289955660564,2.2539880050480514,-0.16536587076966358,-1.3342837981124189,1.3833642078322528,0.62963437418274892,0.73753402772745524,0.62101812790006194,-1.7305984930766214,0.32394019599455548,0.49365757474985211,-0.076228449819065722,-0.98035422822229212,0.91905285153984617,-1.5761532822139983,-1.6155081162377958,-0.48607428885338638,-1.5665555161214384,0.8595672602126897,2.0580156198958064,0.73871182896112497,0.18453281021865969,0.14034267659310623,0.52344154376782304,0.51433041651465994,-2.0411124850297724,0.1332046870274152,2.9007886231251669,0.5623921934434799,0.67867413367348606,1.0564785024429497,-1.1596030271454487,0.12581594671281782,-1.2809355515522594,0.51869526659853848,0.21314558748631415,0.28682345664007247,0.24639927112066487,0.053033237844500709,0.60425229439121431,0.10456119326454892,-2.0377717423180748,1.6708577262742055,-0.072907903987867187,-1.3717414443036726,-0.42951056460280407,1.3373681194690836,-0.42606622271699268,0.97562748697727708,1.0521394268617406,1.9050186281688886,-1.1409271193046617,-0.82997160043764551,0.25606473775848038,-2.3273270020018533,-0.78626649254176395,1.1982643590535906,-1.0279202589333967,-0.16903173320566944,0.62012541011222289,0.28519384613407495,-0.68082736140363842,-1.0088747453719966,-1.3109320728810621,1.5038823816012088,0.46916655628038351,-2.5057181441645802,1.6335519645521708,0.13447537582768959,0.3067535899643607,0.55677800227977814,-0.14211269315123837,-0.13350241077278799,-1.5738484066606389,-2.1159260019720736,-0.47835382767934737,-0.18090123746849582,-0.36443853358973655,0.66117560103049555,1.1318966863712276,-0.49120751158506482,0.15943173506839453,0.39633674247568162,-0.36303931175322601,0.19930861249459342,-0.0075682960692208508,0.4592650321160951,1.6542289263937224,-0.71268593932922653,-0.49712643538965234,-0.23148737856649698,-0.18940651659662858,-0.16935146126970305,-3.4415552957115443,-2.0700952124357532,0.32921878674056843,1.0038198534944578,0.66573627612282882,0.8104955306089312,-0.21469805584022456,0.42614911361404822,1.3753561263650178,0.50234477644636366,0.055877062179421282,0.78077175896483431,1.1081598630022389,-0.88880200655931485,0.82945386868840387,-0.88740699967250991,-1.9170092063266859,0.75774943189864896,1.9517531508888384,-0.1249479530302435,1.4825657354145749,0.56445086331860816,-2.3244899626188928,1.5124221865996554,0.54868671434123906,-0.75316188520788874,0.23454673913638202,0.58289857334963968,-1.0800575296593029,-0.3958358817040607,-1.2434842523709784,-1.9652813670147835,-1.1467789048050219,-0.92011667643126804,-1.8539752724152163,-1.8948730309786832,-0.32220600963116219,0.50500843311510146,-2.5633884720902431,-1.4533178109672646,-0.10436399292423096,-0.60231246639923186,0.00024893452921825898,-2.5260943485943095,-1.6487679928414907,-2.3981923984251021,0.77107639336126688,1.1978553322904886,0.27605237692485529,-0.91811494102608593,0.4982314304240425,-0.67231540495954334,-0.3293905637937487,1.6517185306470605,-0.36306239819238328,-0.3722968449234304,0.26866943740307631,-0.22872131130925136,0.80337307532292501,0.75172879473948151,-1.188820453611102,-0.082972336542300629,0.69118359868280188,1.5776839311628543,0.018116670409869747,0.64205829755613575,-1.7040991390653744,-0.44996096324961521,0.2674983170935003,-1.7269526089294278,-0.19355243387411139,-0.49404693125545168,0.0050425724542156143,-1.5059812434295516,-0.01315053983131873,1.2583163061644858,-0.93090253676981083,-0.062345547798036006,0.13506018033603504,-0.40703440889848314,-1.8656805012754072,2.2879433586294957,-0.080504680882919108,0.7802007442634904,1.3604326435206433,0.71407794138836211,-0.32828955709791002,-0.058032964912359583
0.41804708517803846,-0.87991059282962025,-0.84488804094400216,0.54963226747352878,0.28517995521538025,1.0050325571627423,-3.0139320035896575,-1.3392861246324292,-0.29085171504705115,-0.24388630966812797,0.0011637011078300284,0.88646505770728734,-0.24489257161840014,-0.49501431487633313,-0.062544618683734038,-0.12628467882203945,-0.025023996554887747,0.41757475221934442,0.51197565229670161,-1.0708280741756986,0.47011420910080914,-2.4615996708662773,0.16033976724877291,-0.45788872084086218,1.813322263975923,-0.17045028982249369,-0.3065637991181821,0.06705532037584036,0.3616468701778181,-1.6457049441969407,-0.0076500096885425495,-0.23710034877809374,1.7845742919735519,1.0202964568889015,-0.0071980028656088383,-1.7245619326687067,0.84895240060303623,0.72870672722010577,-1.3482804325147357,0.17903081356437556,-1.14545876662812,1.2559912355091902,1.2567295730951362,0.41562440934200034,-0.014589524550318436,0.35269390944448153,-0.50610251436512799,-0.5423723162190015,2.3668413992803652,-0.44986519621661797,-0.52329764254394384,0.029143111339387479,1.2161254402585893,1.5193448740130568,-1.6856428178912652,-0.69638879772870577,0.90652848703345634,-0.96554879476890632,0.74744277052657104,-1.0212067568637959,-0.06206810070735299,-1.0342767206753889,-1.6185717234693018,-0.65668437860797779,0.72099411162945848,-1.2992966378421167,0.55010981877004572,1.1096660833473095,-0.11717800160750133,-0.11095085530116655,-1.0504565349465682,0.29615465593854429,-0.06767604905241284,0.85439277571942196,1.4881784261169082,-1.2603278877316064,1.7504578428520399,0.64844287070192741,0.5602815440545591,1.3487843280505767,1.227291743084274,0.89397216901953369,0.20174719865850621,0.65691861908724869,-1.7773573811758194,-0.12877778489199573,-0.74198145898559653,0.062308803636179994,-0.38257292731480103,-1.8076646668936329,0.10105849086609055,1.5723783211470284,0.089939491399356988,1.5243909676998768,-0.79135207616553938,0.0055880345135588608,-0.95469142264116147,1.2720961989025581,-0.85117470540887175,-1.5072383777951959,1.1795999194726778,0.52707891170262089,1.3738086081621639,-0.7849763410173044,-0.28515684865254931,-0.52792548793127259,-0.92579282597632417,-0.44400112832428656,-1.4726879137530189,1.1838556404530052,0.62094202134284182,1.3543418488823642,-0.44512769641676253,0.32718648110919274,1.4866418723302317,-0.36413299706944285,1.3013774386913066,-1.1030772408428073,-1.7166433852314509,0.66690418375623595,1.0912259365181909,0.5160478465052265,-0.53562223928102926,-2.5046252258470281,-0.015238796672699959,-0.43350965106990613,0.85066476881490449,2.1495386251136441,1.06901615128646,-0.26807950037600747,-0.39160780760963854,-0.68573429514584094,-0.17940685016804972,-0.29902497306961956,0.23400042746600658,0.40838608337337506,0.054095860001817792,-2.789937477381343,-2.2870711582758156,0.47996958444954929,-0.60913896574387894,-0.49577510475789105,-2.8866192487315807,0.036073322844758081,-0.71634617314657434,-0.68604768836574537,0.54025961030851022,-0.37145483162823806,-0.14148655170078686,-0.1755419841417393,0.78446137588673681,0.030210180683977773,-1.0875018839386521,0.042487994460910956,0.60391029189800605,1.0163011628782908,0.79368563058860453,-0.90190295620563377,1.3029789685518844,0.27405247189412413,-0.57023427286006068,-0.12086266374312324,-0.49848041928115572,-0.64146417079479245,-0.93870806813534968,-0.10788210070623905,0.79158100225143591,-1.6168222875185716,-1.0108689734886041,-0.71551619806618894,-1.9963746885967433,1.488247910287428,1.2851256699210669,1.5584506215581195,-0.10863367493552901,0.89289057169400055,-2.8625509383350574,-1.1768277931304254,1.6730993004786696,0.22706862072727554,-1.4927181578927746,2.3551949139735653,0.10587290133017921,-3.1554365316642312,-0.81278552480643207,1.6889401777076258,0.35262230493670715,-1.6487626351453357,0.10018563370139291,-0.2046610364544757,0.97645704025949331,0.48802587047854951,0.72852406301083472,-0.88066601101947861,2.389597241747853,-0.048400297307302491,-1.0775484294585487,0.84218196039496096,-1.6408751402454318,0.20090061290984854,-0.099835490841222771,0.58454509313051917,-0.27543452353627912,0.064661038030570994,-0.18307763611327316,0.86751612421663893,-0.65544284065823255,0.46554319262225258,0.96527285444304245,0.49044818658635575,-1.102548493597141,1.1044549671547317,-0.55990383719219583,-1.3775533278959455,-1.6408742693876848,0.46978548498811845,1.0723783211448374,0.053304551583143414,0.61654749742037851,0.7281764438113989,0.15180652400855432,-0.13429445386410219,0.39747263281766293,0.96751703253320465,0.74289678899210243,-0.05903832143162608,0.44168981291777099,-0.049024792166025677,-0.56613467128555672,-0.7963653034072592,0.12943272957531024,1.9830078585311903,0.32587234339310683,-1.6434780876214126,0.48710747294285134,-0.50447224756858888,-0.56965671115059757,-1.1975085394407534,0.95137192878413623,-0.62376194301086108,-1.1248195633456304,-1.3876892799040343,0.7536477057327382,0.67061425674038744,-0.737005668314903,-0.17856596259032148,0.77143065664852017,0.20146662389682771,-0.8733349079496594,-2.567014476791655,-0.91502962575143287,0.96709590299408599,-0.55223627893085048,1.6978069064543673,0.72664455751297208,-0.13103026893653613,-0.36807893534630293,-0.14559048582328565,-1.6510660762445006,-0.51209381432195789,0.36304089337786311,-1.8308800173711253,1.5540396611822895,-0.95044779372927635,1.2998227098819384,0.19034724031991387,-0.11934941373730446,1.0425500625978628,0.5405153792708618,-0.54087600688374049,-0.57184702096580597,0.34404068817928551,0.37398999666923916,1.234879596529221,-0.74300724842957377,-0.53113219109640109,0.56712752810045308,0.41423300888141884,1.878066129495406,0.34144791736975594,0.1150490154344655,1.8724945537668098,-1.4273937384381366,-1.0768866181377823,0.024982655676830817,-0.0177718129580632,-0.5953177918406789,-0.52507378051762843,-0.15192694659135414,-1.5632669489389077,-0.74083035440315592,0.99451537272498181,0.23030815757558401,-0.30078132518384021,-0.15672844207106393,-1.9559977141467755,0.02319027167036922,1.200576007426237,0.13682005332239197,-1.9969704755668118,2.0290283963425342,0.46260564375731922,-0.27544068507554559,-0.23833990091657178,-0.90187579939583273,-0.39108641446772696,-1.6393028894507298,-0.80322545854611105,-0.19081569830479908,1.7593214604579361,0.58782647317796,1.291779344660021,0.66513929476671807,0.75627773254319985,0.53012441267002652,0.095774337871904175,-1.3696428179480618,-0.24173562702081028,0.98059414578359194,0.61584013917029823,1.7464835579849547,-0.48289379435602603,-1.0551695419689435,-0.85531258917092812,0.69378904483534698,-1.1389680374513493,0.48687049570626983,-0.32900499526049232,0.83009104475889706,0.88583142182905183,1.6455090255344216,-0.34694576524829662,0.63940026480083068,1.1080342670093566,0.7017754695713202,0.80621609353763146,-1.2333893440676842,-1.0727680480310418,-1.2279462259092284,-1.5907382724516683,-1.0935056018115195,2.0081085830564041,-0.66181895747375652,1.5216825891420267,-0.12658956561891396,-0.78061518896520188,0.31079899208744877,-1.0962105828886268,0.36031442556726878,-1.6467488491421927,-0.96726862769603317,2.6093637494434732,-0.70436008591979105,2.9245084047734391,-1.5412839266732385,-0.61369644459938033,-2.5499631726725753,-0.64222605596301052,-0.095093723367032396,1.0736408503159314,-0.59304679247470937,-0.94725605280867864,1.5702092459317611,0.26394561370402531,-0.62129132181592683,0.1629220176823282,0.3423955767875384,0.27462947671558441,1.8648205567376395,0.67683754087311843,-0.38994695293678294,1.0244539608321417,-0.027830388911438159,-0.35412173476866765,0.60762109143030496,0.042063299060077976,-0.038473049299215731,-0.1794978651284698,-0.037132316068922769,-0.27664705442561666,-0.36890026269917403,0.051401810440959234,-0.45986802461778248,-0.40202056357248189,0.7246905241724606,-1.021169141138752,1.6866371790580272,0.726680007456038,0.68948052689141426,-0.93126161994615397,-0.17453346862345642,-0.2090695154395299,-0.70778548361072813,-0.42010183871991791,0.50982783943117815,-0.36267831955831858,-0.29215876539866609,-0.041551054094370217,-0.53131968777208349,-2.9473158972988149,-0.89997239575828691,-0.88918393653969996,1.022785249981367,0.795707772547534,-1.6887667524177159,0.32923058675375233,1.0922992689857498,-0.39660866218233859,-0.38542735113903587,0.1828749140243543,-1.7935658174359759,0.38859845696573803,0.58207862852529513,0.081701105725377185,0.60390650078981112,0.19665797407445046,0.024773609227955459,-1.5121845045417295,0.4179410160705832,-0.81343964054141327,1.2542919034603213,0.50595899323696703,-0.069575127194933528,-0.14802982454838359,-0.25483829310644268,0.49582083818642181,-2.1733155808941436,0.30075390990547934,-0.55168110270124771,-0.19656600042046882,0.6148209524211391,-0.99954305916358877,2.1230366250595401,0.31797646031263399,-1.0010360958836018,-0.51678850242255048,-1.9861542389775915,-0.094284979760698037,-1.035838697804621,0.84493805992015791,1.2669613698259155,-1.4006231648494338,-1.1781786785344726,-0.60994549050989799,-0.80217793564900974,-0.66761693133078603,0.70533290044207431,1.9834462393206915,-0.96372203964503966,1.2987100002488947,-0.17344729130910486,0.50521526416740836,-0.65065039629671273,0.21193891176142166,1.8915360258012466,-1.2089741233810756,0.36535284295827836,-0.74451386748278459,0.25399260224045855,0.66624101795887469,-3.0163355672745018,-0.68800953396256548,-1.4640452091076268,-1.1398830918852652,-0.39735018849598214,-0.69790908539156271,-0.5591382439910404,2.2767819781359071,0.44202250203148602,-1.6507889446985695,-0.71033026833909707,-0.51314212847158736,-0.76717845482164626,0.025775478914208661,0.4102294143553028,0.8542800100308563,-0.88461241587692085,-1.1521175663232832,-0.53400719526099716,0.53999991310122375,0.69631346284885876,-0.35994856114214668,-1.4700808438055135,-0.3338043995420667,0.58541390907367252,-2.6447360922533036,1.9149915979979211,1.427030959885315,-1.0079477843689124,0.28406539748744752,-1.4818503874521565,0.66313953717726337,1.1937659645438072,-0.25358903393025967,-0.17643340673744062,-0.38044721651303498,-1.6216311555165248,0.49436451965840361,-0.89821217234888451,-1.1859825235338353
0.17821319869962646,-0.072542295430313944,0.041959377051904299,-0.4094708781488452,-0.89782811991999523,-0.0047406365579085652,0.11399591060374663,-0.48255052318935343,-0.74060549851423441,-2.7993016301545093,1.3519266418745604,0.90076499763094053,-0.019693524914518083,-1.1433515615911174,0.39030065402613312,0.20704136262896675,-0.87425559992367985,2.3129853369168885,0.96276088042475338,0.98926413069181862,-0.89198506165134206,1.3319023825004166,-2.170930571404063,0.81747931409402053,0.36530092710291628,0.95057669951009161,0.19221682308021695,-0.48040015226419236,0.54178753937194779,-2.5509321044510473,1.2552036763762509,-0.57968178242236623,-0.13132343533090135,0.76923744672030447,0.30333919855630737,0.4092962474858014,0.5303290866918442,1.3259420712720225,-0.47504654093450671,-1.3487054494226587,1.7491079223656401,1.4606029481436964,1.1588740170734118,0.00040861153751113756,0.60795953518582968,-2.1861190661918308,-1.1114437657121958,-0.02566160051710651,-0.038706051465852258,1.0210457834174258,0.10804525788845014,1.119412600528477,0.55395765975095068,1.3042746394219438,0.98791238699731321,0.42931282188099829,-0.84880992269405775,0.33632636753730211,1.2545990798202038,-0.72061935472602057,0.4256650203273879,-0.20585972001036648,-0.59177043390216177,-0.4200980363252908,0.67228797028537179,-1.396312330670691,-0.31967832616946373,1.0516618576746206,1.4272092476785876,-1.3493948489317524,0.7911810088352691,0.82233313962212307,1.0026453716184569,0.2934240232743624,-1.8041056494993448,-0.5597471103232653,0.66843858306806625,-0.7981906157955857,0.74989839328524954,1.4251544557506637,1.3852128075035377,-0.78746393372787793,-0.76875747131647221,-0.65023422832250422,0.77144549498047743,0.70460326797462147,0.76449691232479933,0.023049333608590246,-0.62605036933834501,0.8716999884082921,-0.75941248847441101,0.073885988864700852,-0.19013981068929639,-1.2302306859068739,-1.2010646446844495,-0.33571921958334411,-1.3852137859385842,-0.23998834431660915,-0.23638285906030423,0.84650002743513952,-0.22940908288183323,0.4449840070244574,1.4378612845287921,-0.11113913370970607,-0.99193797750055657,0.77551186542053963,-0.34885152510102274,1.5043772678322347,0.37966246848558066,1.1805733784469763,0.40798585577543861,-1.6687074023705366,-0.36032024576706306,1.3156772716554592,0.89894923221275636,0.61276995321902994,-1.2369415292250865,1.1771882935950921,1.8020630034912577,-1.0325688153973311,0.88402297334309365,-0.27993686678883944,-0.52853147291890146,0.92504960259244484,0.65423566323403959,-0.6332729463496668,0.37346263545427943,1.037962994497946,0.70906731975375115,0.052618128985865806,-0.19225771945707765,0.13422152276931029,-0.23339854926978992,-0.92983930014287586,-0.91163917162138297,1.1205474329209379,0.014887222555207783,1.3935267410847552,-0.85403486006061924,1.031070010673248,-0.7392324335364916,1.0599489761955205,0.039064684542666296,0.85384369664319959,0.69033460743098096,-1.176685286197215,0.37761756296944904,1.4862957632685041,1.5664596956431074,-1.0265484064230301,-1.1743567189331101,-0.25321646569292267,0.62943295429752266,1.538085837796328,0.7109031529652029,-0.35725019225786003,0.66229538510516694,-1.5885212037201184,1.0548214668284825,0.17485566875318065,0.061206411795310459,-0.51159410715998543,0.25269846668821022,-0.52860217835011059,-0.047356902826916715,-0.37708062347268079,-0.2694286300327815,0.34867862615430278,0.95746512508483306,-0.11795758433801691,0.050946889448115741,-0.080982929367973508,-1.3938167353431645,0.1489546268882081,1.134785619685579,0.59940852475786199,-2.302538260904317,0.74328304687049584,0.37475030067612985,1.1480572670605764,2.0375312291582315,-0.23640583204367405,-0.67899425423827675,1.193761603653354,0.45982540072445599,-1.3391724092670925,0.23675685587909454,1.3320942358180585,-0.38429138790296974,-0.03390300269786882,0.025014530084519055,-1.4982119695801899,-0.046778433410303487,1.0210039752308495,0.47014925728488322,-1.5788944915818821,1.5697157179848678,-1.6252642655991536,0.55154308380620443,1.3813852609094219,0.21111957591361608,1.3653275334223562,1.3500196441055947,-0.60917172956610466,-0.70120958776151587,0.20074878740360366,0.42365891015621543,1.4071162302962883,-1.6028610095437861,0.7617920955487526,-0.32270549564364859,0.5820259219190036,0.082256850940990556,3.0717001997472897,0.5379598552945406,-0.55172675072969124,-3.1428172588774177,2.309537104861616,0.31631916443899344,-0.12291887632155808,1.263437770810159,0.52794579099654204,-0.20980802468355778,0.59513115248721826,-0.88423622955235315,-1.2179427945660311,0.856255348907491,-1.0782443290055466,1.053710382019412,2.4883144999746412,-0.78218352366391553,-1.9505834091421601,-1.1527012751058971,-1.5158283829122898,-1.1162834475881689,2.4897725040597454,0.56942427844404875,-0.74290934441341017,-1.3208966649345437,0.40395130138293794,0.054529853719756625,0.66118097527702591,1.2217081295293108,0.93414611233908529,-1.2689679889280632,1.3101497059675897,1.0647859286437593,-1.8553769799301743,0.61387465503470195,1.0624806056927949,0.70500331309426711,1.9301476639162956,0.96017121211272061,-1.423278036353999,0.32563878889130876,0.1454364481537323,-0.94095520807983513,1.8095567112822541,-0.97146315343149658,-1.3411357858572943,-1.6482103727372301,0.42005499177094002,-0.87437351065190694,-0.50675778561133822,1.11377771634249,-0.32650557926343615,0.28850317953467758,-0.62148482970454744,1.7517256605691458,0.24095121373576256,0.60108675522063792,0.13989064076865687,0.71686424442407337,-0.62569834815591652,-0.13023034274598658,-0.42333237764841791,-0.24605651975743761,0.89101077694680186,1.0583098578840235,0.59542857788903159,0.31412615124121029,-1.8814749362574212,3.6599465135221037,0.11701445422599635,2.018771414618695,0.91211022596301905,0.54848768386449021,-1.4372513522699242,0.0082574173039630817,0.14441934955427868,0.5276141431106941,0.042769717044615123,0.44953060310193471,-1.3045888603010938,-0.68476238936240319,-1.1826273994807892,2.376826134447084,2.100635808679796,-1.0369229424643354,0.3910991648079043,0.86245648534600239,1.6378045616460501,-1.5559795829493399,0.041391370776709034,-1.5816341618708563,-1.716490731553947,-0.45454175262749397,-0.021232645516337471,0.39934489079030566,0.0023153560561582466,0.075299155931328215,-0.62135248758139539,0.15679379355180414,-0.85304811230121169,-0.39009844483717487,-0.94084019037199063,0.42596095318101496,1.488320287020015,1.1518618684241244,-1.0775943537480288,0.7868083853677067,1.4346385964024124,-0.60389718016608063,1.0611495151566623,-0.27087540456157455,-0.82545846768196007,-0.38517740485041296,-0.68411215454111751,0.23466881439907722,0.10756283216116549,0.94762867149501184,0.59056992851416634,-1.3768947448372266,-1.3826045599176673,0.8203027563553017,-0.2788405990365454,1.073468727604211,-0.53857736489644792,0.75965300636121957,1.7352930130493585,-1.0031186247905288,0.20685418774500286,-0.063248399830000038,0.2280432655816701,0.60975244211180646,-0.2261964313657164,-1.6420316812685007,-1.2527023646919506,-0.16278268039340443,-0.40284853095405604,-0.34117607986768567,0.1507460183946141,1.0844046283640207,0.29282576624270734,-0.18755835714509506,-0.7179445973177645,-0.4667926203603624,0.95646345113674047,2.1132154782156798,1.266166767261186,-0.6901483123127643,-0.18064548949255396,-0.42612038358566673,0.090854103841750342,0.66297666455117921,-0.52374545449108123,-0.11520356263127612,-0.05499190593496734,0.72219608310827665,-0.4749313965092215,-0.87899803492224682,0.97004569998704948,0.59406402197398855,0.9751255091401374,-0.31497256524526812,-2.5798941608162598,0.44013906051104085,-1.5721399885356768,0.25097860861014082,-1.6505131156807848,-0.25268139675252888,0.93727694545647489,-1.2464091344479424,1.6775984002445874,-0.10024962642901783,-0.48674271336024011,-1.0094543643805423,-0.4496530093425759,0.52348629669176616,1.3585742184497362,1.4722454816286084,-0.13128727297895881,0.56288519292817507,0.55585955243552032,-0.98210345833791224,0.44458734217721929,0.0025180747052831239,-0.077760705086984461,-0.83157983769286725,-0.57294830127859997,-1.4193646028402562,0.14170219262257891,-0.24695759642183515,-0.53486134513378703,-1.9637311528322474,1.3225621748427419,2.5463155720960033,0.18757416367695029,-1.0066048661682743,0.32884035870058914,0.4028363436510225,-0.63278170778666731,0.80503867041298682,0.94483553810372922,-1.728056069213568,-2.6853779743424147,0.53027439667698417,0.47817849212568536,0.93754787749838853,-0.20344151944018868,-1.4371908270021607,-1.2696600246205301,1.213462096728996,-1.1899814026100601,0.15117824023726745,0.16806016158990092,-0.59767724153040869,0.013998971872410152,0.42771164778325216,1.1730744827650659,0.042029394575574586,-1.5672997313423727,-0.89442401835215113,0.42155685798531561,0.084926654651561087,0.28326612421236486,0.71986687584675535,-0.10292984600017688,0.65559873073310815,0.38595816056119953,0.64728643282911635,1.3410233149834589,0.73248915290457117,1.0980980473476412,-0.29234460855734357,-0.64228845203597096,0.46631602055930449,-0.50466340295478329,1.6347631804520852,0.95123962232631654,1.1531129153922905,0.6234266114138034,-1.5416785022278792,1.2042536409442042,0.72771187769512569,0.02578395712401468,0.048970015415097927,-1.328859638845816,-1.6932722804884746,-0.46464281617485126,0.46231968737493073,-0.91681971620386737,-0.44025021597136099,0.14950198012249716,-1.4328638774867966,-1.4860928786658749,-1.2923488461268087,0.78767831584226611,0.85546496894039215,-0.27344792065925716,0.21526871867112302,0.84866330421592584,0.066518590584248097,0.75671012289027617,0.25937027710397936,-0.44644255688231838,0.10980181617246518,-1.8065402356689126,1.9412449820667319,0.18478742047004115,-1.110947902502895,-0.2294539674925368,-0.90817391817759952,-0.025314871367393472,0.11739949229050753,-1.9295402268442132,0.41061771663259755,-0.4714324206680312,0.30512663604616203,-0.51773013556023584,1.4415630418354097,-0.74630014933807598,-1.0595896475776114,1.1099753743519294,1.3053149443150869,0.63169119914481675,-0.98748710714405741,0.64557484140476995,-0.69120969426040613,0.7366317200988437
