0.31864792807745662,0.85426491384470116,0.26796765522339316,-2.4793024957443657,-0.26042871270289336,-0.79660911457220773,-1.1170188571014243,0.35047091602575231,1.0274384154305372,0.93618805365484969,0.38401227927948711,1.8736130896063969,-0.17253607600122789,-0.50103337444412621,0.67230560915390503,-0.59687094250601458,-2.0656832873256961,-1.3045624233776603,1.1053426562747888,0.050652177791549464,0.061225499213477363,0.24998811002600529,-0.49362667388749482,-0.9170782056736092,-0.1913627759930725,-0.026567702995448111,-0.59245746720326464,-0.19221280723865206,0.33096386686872736,-0.73612977185774053,1.7663317089766153,-1.4453875712363973,2.278578454173239,-0.71435463167098712,0.431450978213193,0.49865884205008587,0.5585611060108191,1.1523102094104538,0.56229096518514265,1.7609385815090994,-0.07504992456830821,-1.1448772448043385,-0.27881383676035276,0.61954355207234491,0.2772410437630205,-1.5560093033307829,-1.8570497882596455,-0.27085099097270116,-0.24181213937819873,0.8508990173291483,0.48060895187385055,1.3265264146742006,0.699922024703725,-0.77743626042947922,-2.0189887142937093,-1.2007735868771749,-1.2470743253073067,0.87869421482944754,0.23887120156762048,0.45685587806990391,-0.19158516496644948,-0.67748509959090342,1.6873358113308272,-0.19549225927951833,0.10898416771986529,-1.679627701588513,-1.5077791742528555,-1.5465215107044974,-0.90192732493947558,0.5173209827610985,-2.1628490413700381,1.1475804241090293,-0.16111871685743315,-0.42467840082462399,-0.92135459615006643,0.10268792573562434,0.54321542165775039,-0.9210048001892579,1.718924241598649,-0.81566059506995603,-1.2856575079185208,0.74822604437697837,1.1439660026267158,-0.4911760663704709,-0.54433707026843381,1.0908786045993983,-0.90898882499680211,-0.32543486486704515,0.65364508845008729,-0.85527925844569119,0.13783129338793343,0.61252536438672411,0.58231317613092559,1.92270339081241,1.5962574849704023,-0.92405664415956024,-1.5917112063667249,-0.63739491553181826,-0.87033543549448478,0.11414064307666423,-0.2206679900353351,-0.38733718647186183,0.019467933398502293,-1.0749726035016358,-0.80466952467743136,-0.13247613955136706,-1.5880017745433141,0.90053192199064835,0.18692403616368181,-0.52629360593127605,-0.62394783543911592,-0.19340903676830906,0.83603561709179885,-0.50502751443798566,-0.57323979462915631,-0.4593060265912704,0.48239186455996891,-1.2631865846036967,-0.636381636573502,-0.33019415175147421,-0.17892834483448969,0.1580694873502243,0.73596280496356425,0.21558277459169095,1.0866475802654161,0.68876924927463068,0.69931436084532872,-0.42821006486924135,0.4842337818776235,-0.52750289700555808,0.93110130923817325,-2.1284922276573193,-0.93933936185333777,0.22301139526309488,0.27367043292541243,0.67042386653769748,-1.7735731623826168,0.035221415332756065,1.2348567301243938,0.817094018172696,1.3420524409181522,0.22197629407274833,-0.053156565336474261,-0.49805080260750667,-2.6916007354705749,-1.1863419722843964,-1.0206878499012046,0.32924848669240958,0.52870919324580345,-0.6206403632470785,1.1666991685779913,0.67529681687262855,0.288957953299389,-1.3975535901105067,-0.75391669976629172,2.2661722340514387,1.2751366517598777,1.1362650352166974,0.27649769772308846,0.28071901543070915,-1.0638487828590484,-0.097048242710617988,0.91492892487802135,1.607822131416248,0.97785985470075754,-0.38676319483055849,-1.0099234115250941,-0.24670109389897071,0.48321541148506642,-1.0124591970736421,0.25696990564024441,-0.57832758287075448,-0.66413185166821431,0.11220053247205979,-1.0050747520245655,0.75732331633925887,-0.74106995498778128,-0.39543778000633245,-2.0688673080827176,0.3789696812999846,-0.65824806835842786,-0.13497153361835901,-0.85803389465748636,0.57061150296616781,0.25716251205845636,-0.35770916477743364,0.15813179911092565,-0.29029372485711746,-0.70442471728886624,0.32346710859966754,1.6449227087875489,0.14333610598453198,-0.48124963229070383,-1.2992368812839161,1.6869071664344888,-0.37928079258133246,-0.7875800480270585,0.6068315817961204,-0.96063579184877723,1.9473295055057012,-0.66999902280480372,-0.75361106794571719,0.21889655336446484,0.77825954293771626,2.7636575383589919,1.6961704116985692,-0.97061841869165699,1.088311719057772,-0.27031879118993624,-0.99017695879529222,-0.51148806721577222,1.4858282932286739,0.38242231347387662,1.2255312056864012,-0.40808063594691391,-1.6591144245348626,-0.27062045920272088,-0.60799641727385001,3.1203525871054141,-0.34316900997522237,-0.85969013207941969,-1.2162762200401622,0.024473766966284078,1.0075475897318358,-0.20249127269127506,0.16156027484362379,-0.061043442437790113,1.4044406206536755,-0.69409730600711983,-0.279630015856418,1.1694549528289724,-0.78936373627412815,0.27686781624276036,1.8227650426355611,0.67294824486636173,0.68005589277310785,-0.10262573564777973,-0.8569197647666208,0.61847936490362754,-1.213854123140587,0.50247625577089738,-1.0989565061047808,0.84035439693812308,-0.0012168496335511337,-1.9555523936639718,-0.20728119986919302,0.58132521934034709,-0.63418766107545832,-0.85074511349058535,0.20193941547583322,2.0085678067152921,1.1828273343452551,2.5567187098404007,-1.2155543431934135,0.79470606221974549,-0.022145897714389386,-0.47806714388297339,0.4767744862196579,0.30688938124410714,1.9594970988106937,0.054805412037600428,-3.0618406234503865,-1.065238116004493,1.2085843415557906,0.62309685018436811,0.13179534098870349,-1.0058054405914727,-0.7365077636948496,0.09756105201408527,0.05775573401477252,-0.70096233272113073,-1.2008207774459492,-0.67063271984176898,0.68781687439859884,-1.1036672499876607,0.021350051530285734,-2.4345386896724528,1.0752475027130943,-0.22984874408506084,-0.1158803434910065,-0.38828887316741412,0.35921583903402665,-2.4005282043541181,-0.82395143457605768,1.7769123262632627,0.54900775898649357,0.19866673410920269,-2.7576411312284983,0.024251107373477881,-1.3780222682379679,0.82727687807444805,0.42338925359727164,-2.1060303756201026,1.2177554672864848,0.53312761006418341,-0.53601223769715622,-1.1894070429004748,-1.0355342099207863,-0.5566118591363618,-1.5701201561622329,1.2893593551621485,-0.58051656765511994,-0.26398415494017691,1.6131986725588903,-0.783842455797639,-0.88191026413653062,-1.6662695537400247,0.60916317121605024,-1.1106791317712739,0.73882276125818436,-1.4124434082136366,-0.10360633386265949,0.36992558796205766,-0.023689002560581103,1.7924576934497567,0.65232285424685899,-0.82755337914025329,1.2884903724313883,0.087298008493344181,-1.0038653223931715,-1.0193665156088645,-2.2157662580214206,-2.439795064973783,0.061641365143065736,0.6259745370941473,2.0463564182302387,1.100235565364563,0.26687651215222685,-0.904160961209999,0.21813267945878684,-0.11253557878625602,0.66231459200373555,0.88179624963793857,-0.053659277876042993,-0.78320822774566012,0.051345722674377849,-1.3662330316862701,0.34936892347117127,-0.57943531859537034,0.10029882158205074,0.568180564755008,2.1298177506262679,1.8696524227668947,2.3900440388791067,0.71751741229889332,1.2980970435635053,-1.1246759160378859,-0.31301944947106586,-0.28364642729523809,0.81807745370346163,0.045926586196897497,-1.3298736356481717,-1.6776416635677203,0.62342559059391123,0.36791057315529602,-0.65946781846200708,-0.17021693886265851,1.0035180764129192,0.029954111550523251,0.19575077440490196,1.6729553093904315,-0.28045912541856766,1.4274075804934574,0.74319324000808429,1.0076585464187224,-1.1299848133668897,-0.40441120068268016,-1.2919215714719885,-1.8444275850859064,-1.3503502054565328,0.076256799152835064,-1.2224752147825089,-0.38029871981821317,1.1852012795772335,-0.44569601221056565,0.41025377428858495,-1.145637730451051,0.23883049538908807,1.2327863861838118,0.1880010299427872,-0.76994573188904758,-0.61741637292961904,0.14259753808346223,0.27686158047328457,-0.60264596792121305,0.61189676049086816,-0.30078404149219445,-0.5459558926209469,1.164731738604738,0.0022280544749284262,0.99529095679121915,-0.11012751188507792,-0.035002458228652722,-0.31947279798998862,0.41827918652514623,0.67204449346958151,2.2060131031575527,0.87236760952575698,-2.0058373409790566,-0.72693234680153684,1.095300415320835,-0.69602656613451575,-0.55983357855495952,-0.63693669058464064,0.076154570937152485,-0.20217265421081096,-0.771866872126869,0.71822510500761261,-0.72049579787814844,1.1668535260903581,-1.1767039523045015,0.1080982207791493,0.46759355926458285,2.5291597938544843,0.33152982732023561,0.25024326361479954,-0.35196367503691783,0.079442850515613408,0.01249632046674231,1.3009104765909751,1.8553843916583135,-1.4474159407774454,-0.37332110746941954,-0.36675404387071436,-0.1931241396918138,-0.31219636800500905,0.0046855265965494572,-0.1893669580009584,-1.7174547682586432,0.26704872666959284,0.029726777171617411,0.051121140908234192,-0.14090229611015626,0.010905692544210779,-1.4156307692878209,-0.36066332467550738,-0.28623567745453604,0.095563506997865227,-0.35977870837039028,1.3030920142509614,0.1660664282712121,2.2347051205196458,1.6360333485799088,-0.60096148993708964,1.581539413618644,0.68127735356935459,1.2690559134805084,1.8133884847232131,1.1583137143676607,0.91657620157711139,-0.85006877181611629,0.32282820189074418,-1.2783801677403235,-0.95189630646559398,0.22801740257007749,0.69422392581817061,-1.0516470131295417,0.41107409527036987,-0.24515568799293827,0.75983884556877346,-0.37059339609653646,1.2472201450572566,-0.56179664478858748,1.0714957319484377,-1.5174081308575442,0.97085929244940838,0.38039941170065783,0.27673253561797573,0.49076807662245103,-1.4086116641960538,-0.71443195411023686,-1.0112266780964876,-0.93676412463120728,-0.71828990528524184,-0.089998229677794306,0.32782339156297846,0.14954647912678348,0.66433919504196692,0.19699721332269876,-0.84242393837202711,0.50927757557936315,0.70603904927012362,0.75290894640304307,0.45798776468298097,0.12195778574714836,0.16841930129284441,1.3088800715437316,0.43365525557213613,0.57874749716905993,1.0706937851269505,-0.61609611390616503,1.4205252008306475,-0.83954157746922897,3.1769031347657823,1.6586047082351973,0.071632696466473939,1.5518049986293247,1.4057076904053054,0.65163538972261303,1.8650250673125344
0.64175948805254701,-0.068765892907124815,-0.99043409988361497,-1.3953093303864832,-0.40652168848435177,-0.97613336907309078,-1.2696807943012973,-1.5264474552909479,-0.91983868727709017,-0.12652365731772189,0.36090205027602446,0.87109116775391393,-0.61568960203772805,0.97171956007049032,-1.1067603756381059,0.35373255263976178,0.35724488960165357,-1.4577505128928652,-0.97909986084670175,0.85394425846999489,0.47812835178670754,-1.023757071732043,0.032843880409956207,0.31010621393373938,0.1225137997441182,1.0317734948225499,-1.4680930429870196,-1.1849846690522212,-0.34381210713388388,-0.64506619782441288,-0.56152266039219201,0.35731978822350374,-0.78663394810164955,-0.30351892557546711,-1.2297405881130024,-0.48354136114607171,-0.71763034183945007,-0.2779373568947176,0.36420021129991503,0.302027893972311,0.58808412322624026,0.53703977005171488,-0.5524230606121483,-0.050497053488669848,-0.61070776198246535,-2.4227384635244213,-1.153724160691453,0.63198870871419144,0.39557293902050827,-0.40185317030143647,0.34107867574632644,-0.60999038610324241,0.70527230919752648,-1.6395034428834323,-0.10210266770121401,0.8675092065691079,-1.6541811910625632,0.050238493162405945,-2.1023389826252279,-0.14038167197546814,1.466011959509778,0.51141535674643757,-0.14148135545177948,0.50306310372576402,0.64121751738237853,-0.37432295729681564,0.11834070506301747,0.88806228382876162,-2.0776807723765054,-0.2458944091336451,0.49735792621707481,1.3667198320946519,-1.4086235035591863,2.0591173560990628,-0.14524260706352962,1.5637551392152653,-1.2563785581142195,1.7554344383108402,-1.0750895643908629,-1.3678897471244129,1.0949486328573985,0.50489213153772228,-1.6338903897785721,-1.4478076986859614,0.17412238578365694,0.15260099719092557,-1.3555373834392408,-1.5035425777850817,0.62108064010050679,0.09846153955706731,-0.049105417232669098,1.1505254394607014,-0.24442927219501942,0.34718128826613825,-1.4532442473549085,-0.4026931340161396,1.0609377560732496,-0.60971133829944468,0.92051430844143967,1.2322265544200726,-1.4994177835453877,-0.43875663424492373,-0.096738411920187409,0.13429595640802433,-1.1866305881142252,-1.7007426873845743,0.2730701585821414,1.9074312708401,-1.6507047918611246,-0.56531021164499295,-2.0474852766720746,-0.044129132143376291,-0.40359171897884533,-0.15710507882268868,-0.43328492579675981,-0.44039591875601203,-0.77145018711186475,-1.5163873679341671,0.31143330194055269,-1.7270505478461549,-0.16354029464139755,-0.23734795058044936,-0.94081049587275112,-2.1250617683574013,0.53996549990602893,-0.5544397731762537,0.064078726863478708,0.85813285068359368,-0.43479620168603594,-1.0301752460180436,0.36330427324740844,-0.63589501197723719,-0.20948630863280515,2.8994724288080986,0.69063452164191419,1.0786508143132303,-1.503265540691433,-1.9306771827475797,0.82943865925536864,0.55556498500408324,-1.0955671720504223,-0.4116586936049324,0.14193909503592719,-1.4060312530973917,-0.4129626332417507,-0.5507648925060169,1.7324113095094154,0.30392242510811046,0.66896412500008962,1.9968895401428295,-0.1758237720249772,-0.92318941185388281,2.0417137390023159,-0.20154209334802564,0.27261568861139623,0.08963372913705861,-1.1394948645286962,0.68891264016352494,0.068954260479494961,-0.13271452734411709,-0.19733403646719219,0.62606084605840562,0.33235823642806483,0.53242121826848587,-0.26115389579403614,-1.4065968426097473,-0.59033477292771575,-1.1924873890167385,-0.80271188526525938,-0.52014941387526159,-1.089202380862434,-1.2379856777874596,0.075932689046827401,-0.53612869190186019,-0.83266489951061839,-0.044869473314693473,-0.58820776217312165,-1.1382952598611773,-1.011326344224293,0.28025193536064852,-0.1828715824001321,-0.059826533217527032,2.0712926314330882,2.1117124450426026,-1.2535785458917474,0.68447472293507383,-0.02002983713139991,2.0598909124170435,0.24676391162922995,0.82893755373300981,0.31040854549863117,0.56375995671448209,-0.32250283620900538,-0.82401432535902586,0.6482615785732655,0.88357312308282543,-0.22478714284461296,-0.95454178444513516,-0.99883277476512122,1.3757024756926906,-0.88062816167747149,-0.41172451978411417,1.8299603559009137,0.13659293172355089,0.1004579657407363,0.25029228298179396,0.096022997565827647,0.039282108401619921,0.72803950089077951,0.44545104843316785,-1.1541909673610384,0.46667287900634413,0.48274728310563697,1.1133252351913721,1.3893257502757099,0.59139452314967722,0.69875952922678519,0.46751582377258855,0.023723254297677937,-0.63138314717490518,0.57363951942243774,-0.66743959770427908,0.31078212616197959,0.89384615081868202,1.8584618823703556,-0.016038229508011644,-1.2054034967374918,0.13038138136373159,0.48623049366243748,-0.4478041026741113,-0.55057959173853321,0.031029212589320839,-2.0473052858480441,1.0195671689032892,0.37063848767626451,0.87319866330874529,-0.44097521946416912,-0.80034754750745551,0.68610224604960146,0.63479754380986098,0.042561426722826631,-0.55480419735281961,0.60901656649552449,-0.79041480871388692,-0.18865150933457506,2.4357292414746197,1.0402381726742975,-1.1048900779270103,-1.1055951620203279,-0.69039586548546972,-0.066837481029370968,-0.16345418217957017,0.61178133978371074,-1.2779850848304908,-1.8046327915644746,-1.3535101659670408,0.64317787153175299,-1.1694424316826926,0.30856812973439429,-0.071899478601213207,-0.53849380990673834,-1.3092086211854128,1.6518079656416857,0.56438303648223997,0.9385837953352586,1.3447031399780998,0.064929259440113546,-0.49032158515892882,-1.4636294536907866,0.5197867271100689,-1.0693742666113726,-0.35314958520154199,-1.3654184096879385,0.15482755107701687,-1.420771579517103,0.40414033112530418,-0.21954791558866688,0.056789090839042579,-0.31868722981264225,1.5905877042925241,-2.0968332180184652,0.96244940312468441,-0.92839030796817745,-0.47243291900859435,0.91174874575928178,0.74678799344131463,-0.054040381853167306,0.089549166508025191,1.2582063754879231,-0.14398131796907016,0.70122729890850821,0.62361144595721463,0.94124016702003677,-0.54998953895757929,0.14673570559574212,0.55807421308515115,-1.7167704944646158,-0.18229175516448451,-0.015348006491476385,1.0320105136877327,-0.08812849510039128,0.40926916390564899,1.0375033776785771,-1.319962266390182,0.77219265295745965,1.1670188295809116,-0.82479927909872086,-3.1020619349643295,0.48120084266951224,0.82799009330969064,-0.22237200215483505,0.28973373104261646,0.26416503359981863,0.32196667063968493,0.71957719855341118,-0.095350996458959988,-2.1708142949868567,0.30744730971263368,0.78760938219886867,1.4256572985023721,-0.87950773409737082,1.8004855827626021,-1.3722231774122389,-0.17017477917737678,-1.7508513832114589,0.17629471386964662,0.21502002455869945,-1.5105349062374129,-0.24804876610092666,-0.15321581353953981,-0.39397918171460894,-0.98779962163482427,1.1526810226631168,0.21519810012021817,-0.54925583227162078,-1.49343158493799,0.14324356587229753,-0.59722089808654999,-1.0769970964807074,0.7179712453511029,-0.48817569603734284,1.3942620824798138,1.2505691944016653,-0.54928108535222353,-1.4643242613211007,-1.2618489141004643,-0.17284094934311081,-0.30322555681728136,0.47459529801392253,-0.94139543795192981,0.0044176506773414056,0.24550652040518198,-0.20985912478560398,0.22029303217738561,2.768906491539175,-0.13388125016515406,0.2928298263265674,-1.6275244622915432,-0.29521919323868628,0.11846498820142139,-0.36626686417699705,-0.73672875530588189,0.13475604248738984,-0.26014743093521148,0.45725124282960256,-0.016470472350813618,-1.0367486336770533,-1.000091715661761,-0.2205006318429143,1.3874179480026232,-0.42637319759537579,-0.37387921414009662,0.92016485926712666,0.51638571698093894,-0.16475214423006257,-0.049281783602014399,0.8635469836106352,-0.11932965273789962,2.0897014861578471,1.7237698294482695,-1.2694865667317454,0.72345574223601405,1.8536451577400042,-1.1445054688169045,0.71922200769229905,-1.3083317387039723,-0.87208085828948911,-0.16219343536616668,-0.45341475024122946,0.3227707458525198,-0.72212172713237932,0.84504836493340207,-1.2079812496533191,-0.44042784011276276,-0.29992790421523985,0.98859060542335842,-0.70207548645782736,-1.3842757184379055,-0.15672377671027996,-0.24434351609514021,-0.14858220523057067,1.1071614839681767,0.065624777964029074,0.36154011336677816,-0.72650082029411578,-1.0028685059298776,-0.28033651599885351,1.3389192092016049,0.27270537365526681,0.0029407975062566102,0.86670132775928255,0.38066874590803323,0.32914322085342002,0.75518908820747399,1.7017141367178656,-0.52555667180732857,0.97864159224137315,0.55692262550856741,-0.48517673064125871,0.65878570074297949,-1.410411328544092,0.33879431905376733,-0.26197365168722603,-0.53384713235257153,0.0563872638224759,0.44380012630276588,-0.25244732774819645,-0.75712938183751,-0.72582462189745744,-0.46692313228939969,-0.29899702184289689,0.02204527994477485,-0.53415393000772016,-0.34642941835448404,-0.35759072306187262,-1.3931825495891434,1.2161270202527297,-1.6952214304794122,1.0440724208597152,0.3360462622024043,-1.1944319137015162,0.32129010699743221,1.1915237956454436,0.77035301979781734,0.48049711762185693,0.33034155728413545,0.086268857564619633,-1.4728896909552667,-1.3312269949284219,-0.50875614035421435,0.52524715917754605,0.98683851385274468,-0.57464229383768184,-0.32563743501151432,0.54068736756408231,-0.80089846607639936,1.6942635097213481,1.1649156443656181,-0.93491948253250579,0.17603090051320552,-0.53613544899179433,1.1786731812507782,0.9682516636917694,-0.36688933406056645,0.11330934445513581,0.74977681320443601,-0.3740243655056138,1.3127137103741866,-1.1720059366539111,-1.1759385844347725,-0.037024528310604946,2.3355560307025396,0.03209398886070243,-1.0937178051735894,-1.635724430115107,-0.15256230581618985,0.41324327231561953,0.16849738633490552,1.0497163330721608,-2.0356177718906827,0.39748249763882032,1.6888449742390863,0.36381444583876166,-1.3230535786689341,0.99651540006522321,0.91181792332353584,0.52899139219181657,0.69726694066648776,0.35589190397963394,-0.35759767517548352,2.7260263055707283,-0.8094731131059536,-0.5464891388253672,-0.33716613750894925,1.8242688079766043,1.3519828921955974,1.3763922063923448,0.4318481520308608,1.2195790690102759,0.77928643610979909
-0.064820356409574759,0.70206856734920231,0.034882369304933061,-0.22310600229580169,0.8041881988744457,-0.65810362707959447,0.2682364427290313,1.3533144282102814,-1.9904393869438746,-0.19771939571543765,0.10086108329166638,1.5369039613797177,0.93017813871017052,-0.085028441302530441,0.880605103262594,1.6322375467380501,0.17087314534285625,-1.6829354552555436,-0.54690342742455755,-0.21575630853619429,-1.5324123059421817,0.35242305718831524,-0.440740258379202,-0.46389194865436906,0.27751077953944081,0.77248410746088436,-0.78103829323968577,-0.79423998123476136,-0.84527459894746126,0.90437354667198733,-1.7250780734530291,-0.67767725575965443,0.075935647082406771,-0.53124521005688663,0.30121783106544375,-0.11079921317228369,0.15285518403384765,-0.67127834097290462,-1.1243341320844069,-0.24826332262677048,-1.2364768925479779,0.15371448003587701,-1.6393300847156003,0.43456013923763187,-0.69637797100305843,1.0559073699247148,0.4154566079838754,-2.2244757007318361,0.39991690331428198,0.87314868577267679,1.4343206830828099,-1.3868773181981582,-0.63029968191713315,-0.37282019780980064,2.156135989224635,-0.83774058610425606,0.68983240377588773,0.45922267418625612,1.3297634194978964,-0.28636122048931179,0.27382074142403223,1.3727824530453259,-1.7403594634306936,-0.78166605056280059,-0.12573050863026297,-2.0905581818831052,-0.22639163344306126,1.1427002500275345,-0.24175093593445018,1.1054050790407812,-0.90999622920706635,-1.0611405425412184,0.40198064481864221,0.84363799723825561,0.0096042853650599273,0.19680361488148032,2.7923487567618199,2.1243796435377154,-0.93869073805197922,2.2151117786776311,-0.84859488926071414,0.98709960903337302,0.23452605168100008,-1.9608271502857944,-1.1624810409638002,-0.52379530823717624,0.93517652289056408,-1.5791307933918826,1.4763875477428348,0.83735821410642641,0.028641190224243541,0.32917188609841563,1.7738509995653819,0.13166504676562676,0.25218718171488047,0.034889238889119482,-0.29564382998171185,2.4094377807013685,0.19214132856876717,-1.5111809855527651,-1.6705327425663283,-0.90309664540285428,-0.11404672100229915,-0.62801067181044457,0.47226461872560493,0.196379971499273,-1.272910638576541,0.490521837840597,0.4690390656634833,2.4051587320901731,-0.19686267860247675,1.7452579654415101,0.93464159528643276,-1.4730003349509284,-0.90511772244979694,-1.995280536049636,1.3061549191269639,-0.95027061095152132,0.29513519438546221,0.59347942528151554,-0.010646915340373809,1.4993577070600317,1.4562095945369584,0.97164903366988786,1.0193169372541804,0.25129843106133237,-0.46357040442910313,-1.2265991049897476,-0.37215312251893229,-1.0265600658330558,1.5853779416717417,0.23482524285997133,0.93841662257591463,0.63321338029779728,0.96691800366318958,0.17470526101738926,0.18249388355216287,0.854577419885723,0.062486457218965896,1.9221053609348591,0.11482725513210788,1.3667503847837319,-1.154477205085054,-1.0060478435338049,0.93791379794860252,0.11932014364099705,1.5407979406076864,0.7722602886355231,0.9080210775867289,-0.21088504007653913,-0.07290678938552804,-0.15407430303965908,-0.17348424997777434,0.59122918901948374,-1.0382486012454641,1.5056580839038294,1.7383150488729864,-0.20207261839456422,1.3930638384245899,-1.8264208870560863,-0.50123272263583496,-2.7560137915700031,-0.76905390708931298,-1.6353165518244528,0.49436291933568888,-1.4172892868758418,-2.0828088851141526,0.86824029399618485,-0.30790587973238687,0.044441523050204344,0.85283823804916103,1.5609008106112703,-0.27552122849053001,0.99882227091262576,-0.054498040900709172,0.48081185090171957,-0.88537135564200753,1.241144737211733,-0.082318308282553168,-0.72573208213140417,0.43723623726148758,-0.45666706792140871,-0.37188323825275471,-0.27444689645547526,0.29314406482395355,-0.94525510118846157,0.065350761392271514,0.050635085818544236,0.068462497891969454,-0.17468717058075495,0.51385758290138461,-0.41118979690866225,-0.33812066757759568,-0.082415665319223841,0.90653770678511347,1.8320427244234019,2.8476951946463611,0.79626681668509736,1.0659492966499602,0.94978101763163225,-1.0543946350810933,1.5353412701348095,-0.54643304814302252,2.0644733504423867,-0.76229665172582062,0.15891656329821682,1.3193684083868888,-0.12491241730133118,-0.17754200807831916,-0.84893871672050247,-0.14408922225534462,-1.9195705981978999,-0.054489646991052694,-0.1264214348194333,-0.055992932628422865,0.41740294474749851,-0.60108159028609276,-1.3004348932660164,0.35558931113201914,0.040352500607170799,1.7591028189148878,-1.3408753256637993,-0.11149413046240368,1.2252906362714897,0.95139673976221351,1.4990494995943386,-0.028282444755609169,-0.82411294043886385,1.4790732325150917,1.3550717737449758,-0.26419481347576967,-0.094411583457231954,-0.43009229324904535,-0.064258389660582435,-1.5752325519335295,-0.53681797162446476,-0.2777634364783842,0.78536992864727617,-1.8228562399318013,0.35962700959240534,-0.59576215789394604,-0.015396632207335937,2.092866427967472,-0.51335791204004988,0.2729294846123913,0.46485963529139307,-0.46158328384212949,-0.9993359748163686,-1.7931785311502864,-0.31113929072362512,1.2007418558496361,-0.35788470851242482,-0.1963976047485676,-1.3350910495843824,1.0360108245404598,-0.40658170802949994,1.4358121560410595,0.46767456051596884,-0.27262589336916049,-1.1023421414747652,-0.28507011311695002,1.1093833380937528,0.10428756913418068,2.523473380589726,-0.7557466107256533,-1.798676255371475,-0.92245978244172588,0.10377111069668435,0.4425556028681854,-0.61174195024813627,-1.8620926521626675,0.79102797596030638,2.0049054968149607,1.0509021155284313,-0.53492783025369361,-0.35066434955809977,-0.57347330016494846,1.5138224434044194,0.51605529308241394,-0.9688302860821888,1.0918316918940081,0.36210711325108863,-0.3769523663426162,0.64499789807564611,1.4381180521017609,0.22466204792717093,1.5073586155684684,-0.35515106457101625,-0.26015169832690721,-1.7087002662325568,0.24739139246430589,-0.54740552579066226,-1.1203798019739597,0.73312067059928432,0.62999656405397908,-0.63224527244251494,-1.6452935679200336,-0.14665073704736542,0.24750302191833093,0.19563385040693515,0.28854896323827461,0.25488677866106035,1.1701726343947589,-0.43833494258761058,0.33794452805228375,1.065632111921953,-1.2434660706111462,-0.22243718918379546,0.66758751065319133,-0.90026855541795447,-1.4286749848363556,-1.4799516635839121,-0.43570109916437005,-0.96807617138377711,0.34234526962893497,0.84481675450082938,0.038959006561422191,-0.43919949721807761,0.0070762479387513335,-0.12329007110189452,3.1472319644551336,0.19218094403914784,-0.84860766936409904,-0.94763704464957677,1.2977761487377906,2.4025055573499969,2.5741361899261066,0.039199153370029272,0.87196470573258344,1.8747485768870713,-0.52668002720446916,0.94675126587653724,2.1759098963404977,0.25063048134183558,0.35790413492630324,0.51343540364707041,-0.89707275621193172,0.64254953075601495,0.24645625830738624,-0.94664270835827158,-0.29772274179880037,-2.0820247209310825,-0.042417469995011475,-0.84746975888005605,-1.8349409757871111,-1.037681295223946,0.72929684592549981,0.39110684779292526,-1.4645979408759475,-0.33538705194231871,0.13361538769267264,-2.7324487515056655,0.054340194347124261,-1.114203058025518,1.2429778593256988,1.0602827614332238,-2.2083402368773992,-0.6356726020257738,-0.31469408481710343,3.1571980429761393,1.0662070252962992,1.1657109714152616,-1.7823528152253498,1.7371112793732264,-1.0563724312568996,-1.1586678654767284,0.10770860601344727,-0.058197467290341899,1.5703663752630861,-0.21165380401977441,-1.1342639176220075,0.10058835674088619,-0.67185665535811279,1.0229696312779433,-1.929597280113432,1.5155982828903878,-0.46128970547685,-0.61831304493447858,0.51737605570378231,-1.3086844363545944,-0.33196804484691178,-1.1074956035852437,0.62001980154557323,-1.5312264870870569,0.23067395059950066,0.71767697656828289,0.2687080028965379,-0.80009165144502981,1.8872567745230531,-0.49931567195645521,0.32484165660971004,0.60817036552792725,-0.38960516533014555,-0.48992843613112602,-1.3260500888540299,-0.80207898069854056,0.79790770142237055,-1.0314839692373161,-0.073021035738101925,0.49643104382458392,0.22759744374096746,0.64541276723707042,-1.3731221243410983,-2.0294707699468026,-2.2333591007276246,1.0436308208938356,-0.20150269869685203,0.47499273111514073,-0.47823932545943915,-0.79273348569943858,-2.38737968296862,0.39709495750186669,0.78622778853600683,0.39438922080146849,0.10143145709138483,-0.19745209300155259,0.39246604310844962,-1.3556356349592664,0.78080701858931689,1.1893512085097195,-0.16150617112697865,-2.0155887383220752,-1.7535915223774401,0.20698701694812099,0.33138856966963282,1.3840765264737331,1.1195625629401065,-0.38280646702304449,-0.084091363204970626,-0.74237369554389543,0.022338754880077985,-0.062161246887815165,-0.38128184480400751,-0.043935975901293868,-0.29463476980907227,1.2481674818890425,-0.12994620832608142,-1.0598653654508687,1.4266454375388693,-0.70534000852275192,0.61623850188755425,0.0010828077932602991,-1.148365420255731,-0.67594529048922314,-0.56153991861439567,-0.88579583985904531,-3.4276035265672729,-0.66085614914273205,1.43682158981867,-0.76833799536317904,-0.86163605173431312,-0.17603330447324572,0.02731041910440056,0.6564665854080225,0.39029176686616707,0.21566170744767232,0.95085441181466779,0.46218026850233962,1.4352695910945183,-0.39429148507878414,-1.5472735565650326,-1.2016599393040168,-1.0918595194601664,0.56301372024678709,1.6105522420107405,0.51756166266678283,1.0438489700950324,0.52850880057648042,-0.40012355608147937,0.4523266312826309,-1.0484784314326481,-0.19748952936542599,-0.57133469853824304,-0.41004412007225394,-0.14759365278472009,2.7676533648339015,0.02222043333122135,-1.0961841250315674,1.1808585049053857,0.36826453546035298,0.59797968087242259,0.18898017080042867,0.52289041415058224,-1.1030425098692709,1.4689879470102793,-1.2050630048695119,-1.3230714631495373,-1.0500216737324237,0.5634805513667408,-1.6853838326463455,0.68759281608731415,0.46156772181809119,1.1405712170825384,-0.65147417184916456,-0.37855104468976852,-0.12591345274159949,-0.2814722849399745,-0.22167561894822271,-0.65081695682453211,0.83044053929516881
0.81463984265833289,-1.4686782515820938,-0.03179623405131296,0.99189933708257838,-0.49123289642654128,-0.73292981436085092,1.5842168392521991,0.97803253094752218,0.81751386330851739,0.16253719112005208,0.54741139989968068,0.18409346169468402,-1.9970835868420025,0.094991232513754367,-0.1833952890909234,-2.1927017509984585,1.3710634795903973,-0.21106742187771757,-0.61910643495377238,-1.4434140535052069,-0.68161166861259703,-1.3673548822226445,0.62012577192551976,0.31535753037557168,-1.8511527697328385,0.58315854566576675,1.3468540289307309,0.48389125871074307,-0.98203231514981904,0.49695895163327064,-0.075632575730951057,1.1444181578225781,0.68440059705905254,-0.77940512896389946,0.2226665002978179,-0.44713091970911129,0.93177095309637725,1.7946541262468685,1.9582548057489528,0.91338087637226961,1.2682241088478736,0.32272488018631668,0.14197016171475768,2.4193526593281507,-0.22375258833239511,0.038448772087524515,-1.1167394536001902,0.49011131752722109,-0.12919325687499475,-0.35993421191332553,0.87618638610674626,0.41645433668352311,1.0176617898472902,0.74317042272634248,0.30569682903827528,0.64867253747264664,-1.3510118947393885,0.50288076266667292,0.43779279896903006,-0.078959030334466565,-0.13383400352584132,2.5141656945408175,0.70737119549915473,-0.2459789116687679,0.45022642844619321,-1.0032556209971184,-0.37072239900333565,-0.20178667155712873,-1.012620206190965,-0.71929364846202104,0.0061790042290239214,0.11242348007198985,-1.1852407420507232,-0.52850963936103312,-0.35895219195844091,1.7011930259456953,-1.0199064675681275,-0.046435852493535351,-0.57933069025389894,0.46854155058357022,0.70721088138958821,2.0417784801387135,0.45595463806759839,-1.1740643938406692,-0.93621342995953927,1.3964974660584601,0.4785284039036955,0.90342574477275095,-0.3410878115298186,-0.91229150010963944,0.24163908526361891,0.010601025803926835,0.17776431171289545,0.55256940679787891,-1.4540627409424967,-0.7910732180756167,-0.32977187039399691,-0.60281428289593764,1.0221046025900269,1.5036339031966608,-1.0195485275277945,-2.1215671626644266,-0.35383331174864124,0.13794721072750019,-1.5486173412948128,-2.2048132890344099,0.8890537796207858,2.4351466592905915,1.2525492435941166,-2.1498377258621191,-0.54827652818650152,-0.31131087087082243,0.95202131649454858,0.015313085836876798,-0.41839481710156534,-0.59868201635391616,0.58823187284636524,0.20846786025409322,-1.7017900762923821,0.32311466292798086,0.57518055488367337,-0.72921984756305536,-0.2413443147731989,0.57612101993124798,2.3256578040551559,1.2726303553829792,0.64645060145480326,1.1129102203130374,0.61344536568869645,-0.093917560263472255,0.91543376844282054,-1.6758076769377828,1.7294463848002786,-0.35126249274429533,-0.59951569998400078,-1.1869821502084776,0.43502218536623127,0.147851012077474,0.73446259126478441,0.57024776944786837,1.1013012325957026,0.078446837151518942,0.29993319935060686,0.24746943108325439,-0.19425979863607415,1.0036878892593302,0.70410089940317133,-0.36473296838784464,-0.72117347547860278,1.0812786968809975,-0.66597007019161303,-0.70385217746134288,-1.6871717072457806,-0.28634061884112794,2.423115853129779,-0.5853993954591854,-0.31841281918595293,0.32466951898780516,-0.48926072918955577,-0.51106147934340584,1.5776436147362298,-0.59837685117989425,-0.34571805849644616,-0.55573304219558251,-0.98288409354025696,-1.1052306376006871,1.1044385836344952,-0.6654312219124997,-0.25254648515256306,-0.0027545494472292634,-0.0029514307369810856,-1.0197527974610963,-0.46831244577521614,1.0218812813181828,0.79043734655745124,-1.2555317432809929,-2.0255032929223149,0.93106835724760195,-0.049653632224064569,0.12583259795806773,1.0203079442528025,0.6958843211612743,1.417785865249066,0.93206671530664653,-0.93731646654637446,-1.6478910262714517,-0.10712745100761292,0.25377619302736965,-1.7406522602790593,-0.5934110049221698,1.6268462546850502,-0.62267924688918386,1.3390266022616593,0.80053189346413312,0.77792766557328719,-0.48071613205988384,-0.4218714090084999,1.0829983275443578,-0.055041103221418364,0.068252082194820637,0.071728778822446174,2.4286711975014281,-0.52816477089524894,1.5898428355867209,-0.18382434005883391,-0.040432258687208532,0.09014362768390291,0.95764490242755096,-0.342616832547054,0.41863189159944331,0.26058571158529659,-0.66237055368125508,-2.9264332444215713,0.25307491906407681,0.85245094028955271,1.0474377124430085,2.0717113855758864,0.87767393825695028,-0.4804195941091069,1.9203845059426794,-0.7316340556901898,-1.0146556876256192,-0.21214805070822423,1.0191164719534813,-0.47169676071716055,0.80931635313651895,-0.36830062430057436,2.4873123477864256,-1.5539103395144367,0.70217528399867923,0.98681230236197282,1.0493369467388194,0.097880255894444032,-0.17008235763343024,0.53253204653282527,-1.106720201919315,0.31270356073249411,0.36418367996245271,-1.3640220469923723,-1.3166743456100785,1.4078082162633279,0.23465076250824302,0.52615062398590562,0.4539235984004551,0.014206944652145705,0.16671597332335694,-0.21598580425128039,1.078730639966238,-0.59999666296574805,0.011111797869356439,-0.3075240872195773,0.44784054139688395,1.6453650494441765,0.72015942822774537,-1.735698479244332,-3.034639068541495,-0.37596494088281945,-0.76056284944474895,0.89238306472218076,-0.3341769432620102,1.3538372026837338,-0.13957858806004361,0.49944621761112695,-0.27341525884929169,-0.95621460369318045,-0.55809235095563436,0.67023379309363429,0.22283959626741165,-0.68282388948488526,1.3161143712088843,-0.84388652373554629,-0.69936764113292404,-0.76528556728239627,1.132843547642076,0.60092398119039869,0.87541478563711794,0.60559042227419602,0.83703440097579374,0.40002746524985611,0.31659199648909792,-1.2651909622896167,0.26104493355719582,-0.099753638342170159,0.078378287467194968,1.5673903057725471,0.71993089247328257,1.6880179987248893,0.3474335349251032,-1.464871640364267,0.61170003315689292,-0.86351045152138062,-1.1459344603533863,-0.42071665539515174,-0.44652747982685531,0.48084952222919886,-1.1813521926079413,0.8975890351996697,-0.036179051775463392,-0.98570724559349943,-0.77197926960015417,0.40760297481689345,-1.0197721435980487,0.71422300303187647,1.2173847245602529,-0.47460580619876458,1.5766759101112531,-0.0079023305932312826,-0.50148533243232152,-1.2141937269019283,0.36076900912379428,-2.0348545913002787,1.478016689111334,0.085991346422253007,-1.209703170277302,0.94007052317779571,-0.2535762667484226,0.49820543479598567,-1.6793861109147274,-1.5102070502187501,-0.040896855688795135,-0.15745750242957107,1.385850891075187,-0.25742834477021465,2.0419467327961054,0.094007542898779217,0.73093498069911167,0.86290194853577229,-0.18904746856503057,-0.26872219789420426,-2.0926700750292384,-0.49884286637078007,0.80656437042640283,-0.30418073383435834,0.50594488867218146,0.99395965893566451,-0.68171474898385265,0.93881960274198417,-1.4341411889302043,-1.3501170469288886,-1.5275093021697845,-1.2224795384473406,-2.3426709449434528,0.43697735853968594,-1.0829287896478346,-0.76796484704496093,-0.89636304424550051,-0.098024848537529741,-0.0386483281827531,-0.37732359470674465,0.088858030184308504,-0.21141281511288346,0.25383599307051424,-0.75564921725927914,-0.62102669403199562,-1.6177417386346045,0.64890658426937986,-0.45282508655393661,-0.55722281795381312,-1.0398106879709073,-1.2945876181057192,1.6455400800344593,0.63203972665410924,-0.34699919242886146,-1.5336482101985236,0.62026178821967082,0.62288384139193576,0.084495184299888393,-0.62426205180369088,-0.27859248185151164,0.40069035445441664,-2.4137350464184721,-0.22093572961113334,-0.021911230969894696,-0.086495260247727607,0.60223328571064016,-0.07951977302657294,0.85882096378434347,0.99282262960314382,-0.80220179968858008,0.81364600600297388,-0.49503192115432965,-2.2204503779532154,0.20394305985471994,-2.6470934681692149,0.64992876865698546,0.46053245365738704,1.4118914988529145,-0.020319184255475107,-2.0974176297672966,-0.41988824593773538,0.19368813234268556,-0.23187033092693668,0.61986173131670275,0.097585157574995418,1.2724586013713608,-0.27700988230055085,-1.3665618241861475,0.41195461274884282,1.1752685300932131,-1.2937760672882865,-0.47713584508158358,0.64455213685826651,-0.74702104221911225,-0.33187115984084598,0.47892053377307403,-1.4390543028633778,0.46170126785489835,-1.1538307201516185,-1.6880718780164867,0.15478904208763508,-1.0653736850254611,-0.78613170738341287,0.28129805640187183,0.68110119288815629,-0.86515019635749824,1.9341564619038374,-0.053700049287803767,0.38182785460463703,-0.097510765793260762,0.75711917650334892,0.90221522064064008,1.5518205474583397,1.5988671783956383,-0.20372100131042467,-0.18184256403032262,1.3227161601270261,1.1133195802383686,-0.91749545308463498,-0.28155841197614745,-0.35411397229289604,0.30050729676568172,0.0031388055468616486,-0.084851513000860149,-0.29658765159580464,0.93074958897059024,1.0504724235737495,0.47697902471913978,0.078508869932206862,0.5343580146757021,0.99988662880398527,1.1813012288035347,0.63178761322843813,-0.07508390470677663,0.69910106025678298,0.20779555401147079,-2.4490613434823811,-1.484260363045979,-0.28025040183269095,0.97383608955895706,0.53933574519666139,0.52275922878112135,-2.4206352545231997,0.43042670877607514,1.1681005141991543,-1.5535656886411611,-0.27508352172203898,-1.1801167055555375,-0.027386883729347427,-1.3063670055763672,-0.53262222127756687,0.96609396067940168,0.50638777680196256,1.0841286471735563,0.14236021646371297,0.85042677460374005,0.67019465897061126,-0.31624199475301734,0.16669767936186278,-0.77090801772954265,0.23317031701627514,1.6636835931524221,0.3023319297315748,-0.21689030216916372,-0.53681134211592996,0.4489139389577953,1.9701679954794278,0.96294920349294544,0.48552471302809624,0.0046194919654668366,-0.84576181072754064,-0.27220393323467962,-0.58281707437770802,-0.0036000267701310606,-0.1134359822260886,1.1119733625705943,0.412988992524145,0.10881762705117108,-0.66832009013176841,-0.070498407789374398,-0.32976474554232654,1.7844603907780106,-0.19599381616174466,-0.0017243332816183322,-1.6723731545838638,-0.084646962529166078,0.56371442532219562,-1.194232627890218,-1.7168540927502582,-0.17264578795305746,-0.1523279465213821
-0.084437970285290403,1.1342107271500446,-0.30132140337239338,0.81643359066019849,-0.73075978953296705,0.7504039220009896,-1.42834671472556,0.048142430653767977,-0.76843056017324007,-3.1118715595851381,0.15959915684048484,-0.58298419152514269,0.1908746942140247,1.7837786432985456,0.061950351819298088,-0.25268357338907987,0.47273057568557569,1.5940203603865271,0.53668618144154367,-1.4404847646365828,1.1140672472617066,1.7465747067998936,-0.99878778325371009,0.26689490548373768,-0.009127710779543937,-1.2548722117671336,1.3625238353213249,0.70459347328376476,-1.922591205122379,1.8318608116748083,0.282244157037435,1.6255007115231757,1.1187281665596964,1.4999304264675302,0.53508731891822225,0.45967121997660926,-0.30569362440039261,2.7379056763232148,1.6056054208023232,0.3795255500830324,-0.6968791990344817,-1.1302445915006101,-1.0197035042013018,0.66232840830800943,-0.67060638667688066,0.45910488426638707,0.23572424180863444,2.1497812175807596,-1.4207474776982694,0.68726358741190141,-1.2446418763827924,0.75302721471247513,-0.639770788411545,0.073575725033081976,0.35503830504218892,-0.38391650128411725,-0.52653295493370245,-0.24331908260917964,0.86416828582257288,-0.43444535087207387,-0.82988907261079936,-0.67851440022699028,2.486794115937192,-1.2872153987087731,-0.81136579273035503,0.3668452103444666,-1.8581120366559505,1.8922220265448149,-1.5758450291081507,0.7782142413748625,-0.26886049473539347,0.22385368406984196,-0.55520694459495679,0.56758122205941164,0.44394996504629747,0.33796998325250815,-0.42233381428208838,-0.59368872168019571,0.38316782059575077,-0.25647703295061491,0.9176850563592952,0.65857852519294446,1.50156376072845,-1.3267975874380655,-0.9289192696372367,0.51664439455572742,1.0189899018650102,1.7125108316819735,-0.35984103109719123,-0.026915761735105372,0.73112385021838178,1.3518414402808225,-0.2534797582402914,1.4080032950447796,0.96199809207077391,0.42267679641058575,-0.52193105416092711,0.37949309565688827,-0.17105991098817747,0.77860854375412603,0.34711065741847524,0.32684808736092624,0.84526687282710478,0.40957499306162931,1.797419396661756,-1.0813648751478655,0.29982587130145072,1.3013064603949775,-2.5300538152245973,-0.70662255556519671,0.16599087537518079,0.33904644983176868,0.93627191078478922,0.15642035049064729,1.3158956398441708,0.21665261980514594,-1.6523193837773247,0.68553249471882549,0.19154855459238235,-0.28359434779484205,-0.0017776641463041316,0.90652990238176034,1.6735479121848735,-0.77088762812626643,1.2866774213405687,0.64339025512646175,-1.4649966380169603,1.3250865598699677,0.25531466545093817,1.0099202525704334,0.013202859318050954,-0.49439721390637709,-0.44490677286947949,-0.18586072813825494,1.129793841321953,0.85761650103997566,-0.6820314547532268,-1.67195408638159,-1.6149560949223816,-0.20361793943324463,-0.62475405458302913,2.3806959984915723,0.49330877865060196,-0.79654175941797978,-2.168091090844205,0.36075965940728971,0.083759550155697332,-1.6912372550725734,-0.0065609428814081567,-0.36099897594905556,0.35539971318576224,-0.089618740747820197,1.0917030519655428,0.27573200631881351,1.489796871971057,0.40462115043167923,0.26576181145671401,-1.283739036781453,0.55499589600512822,-0.58771638776849999,0.56504970206183114,0.95503383463394476,0.51616535270536712,-1.0572358364394403,0.1848378865988993,0.42182491408239436,1.247788845627998,-0.17050194063184948,-0.044683378558280071,-1.2553551196057879,0.44172300965153788,-0.63939931277541406,0.62842589165471263,-0.13191061886544653,-0.60612505752582779,-0.26834318571069482,0.31299786651009359,-0.72977339347387959,1.4541212361298839,0.42770470467298616,-0.69549123161966264,0.23069897008386323,1.9459342825744064,-0.87395498183411313,-1.4414144963363686,0.86550931444564727,1.5424354861950751,-0.026573888263196281,-1.8061394380229565,2.2517152190299643,0.18251461213709913,-0.65745449488505947,-0.87181825462785278,0.64921964260951071,-1.3809030772621744,0.1800964537855522,-0.76495823335776258,-1.3058075862643688,-0.90772205226763225,2.1637832689068071,0.012559399160053462,0.97486419243385436,-0.19166044045432243,-0.8546614359400031,-0.30606974728769687,-0.031415303507782946,1.1495643581622459,1.1319482519552964,1.3885614359193432,-2.8564474630308405,0.27934368351327254,0.68184982899420199,-1.8308673609964627,-0.73578373691977073,0.086790879531064916,-0.36232396377898801,-0.33739158613530462,0.28758653110476928,-0.23543628460103078,0.17085663078019359,0.22484157388744616,0.2409019735818764,1.4466467701858685,-0.63455500147438548,-0.38308954215207808,0.74017516665131289,-1.364615261552776,0.59422545227791579,0.58004786280511555,-2.2148266936816228,1.2619860465642507,-1.215629297462874,-0.40262286544420278,0.16122825395693993,0.6200314637911748,0.77210505846989741,-0.42666096915550039,-1.6109489530046674,-0.13226476282733907,-0.080077077383882755,-0.11566326671875306,0.89147314845935466,-2.3844394834355693,-1.0341806991446811,-1.2584274805151827,1.0380251024574501,0.69215494148019507,-1.6999700929556782,-0.77387622831480352,0.61198410883492182,0.72536773445115177,0.19042962081757484,0.35690280853947287,-0.83010360085520418,0.59880950499769847,1.4502533013786221,2.6143863430646972,0.43760148333044219,-0.23698680044180212,0.95831760712608083,0.96892007646690514,-0.60396535221394165,-0.62378380747981998,-0.86176841926573344,1.4838574905309978,1.2825998307404127,1.0691360119901467,-0.29283933928233313,-0.69832642309488269,2.2599359252395184,-2.1864328286065184,-0.55021791949128296,-0.62505981783310716,0.37894673886798719,-1.5834666587211874,-2.1916571802461839,0.32617882575243867,-0.87595718550689594,0.18362623361184785,-0.27421153509695306,-1.9864037883992829,0.4920673464777095,0.61485304647756744,1.893557667561536,-0.023459520355927001,-0.95278190219786962,0.45766521015396738,-0.32783199666070922,-0.16201341608128741,0.28764389962165621,-0.77738504209388704,0.93060138008864579,3.0874033362464615,-1.2408239152611871,2.1391971999529935,-0.4545518376176601,1.1716060020756338,1.5199008234307612,0.53576665679219648,-2.0699923890861549,1.0329899786216783,-1.6342379294257994,0.47580957742671198,-0.62347915683638588,-2.0867436683746874,-0.31823977582557617,1.2234658721466694,-0.76293168164918412,-0.90765372212290918,-0.33951790012111277,-0.053074323248762219,-0.15371530138862813,0.045717932659902441,-1.0375337595985179,-1.2587214497214096,-1.0851763185915391,-1.0036593465631289,2.0161456509837339,0.40574891500240501,-1.3619081192682454,-0.25605517348170415,1.7548010045465776,0.57382609414763142,0.65227295861146384,-0.37221903520840183,0.62044573320019458,-1.8444206428874164,-0.31795841743848696,-1.1022021957432624,0.65119074492674789,-0.76695391158481818,-0.10516080280003054,0.78396569140071592,1.7832483263724115,2.1858850764899374,-1.0334757828715013,0.75247724521036563,0.52704060295964661,-0.20970069723768242,-1.6958609332416952,-1.4930402997420229,-1.3067672218933035,0.20218618257140814,-0.031056242648341632,-0.99878557538426427,-0.78406989107184111,0.12320018680412348,0.69554696574326258,-1.6049497613111106,1.9786018612497986,-0.082540361076232069,-1.5526855232422683,-0.79580227928106795,-0.50171069756884101,0.25503791536758175,-0.086409467438052903,-1.3049433948787206,0.48260553908308113,-0.18659692178324078,1.0079468342906293,0.42561464492147699,-0.16161031190053143,0.25268107190153688,-2.3094445446525711,0.71161717028055904,-1.0931064450611436,0.65495778639313729,0.85255253002182629,-0.65254733469813175,-0.80450012092930623,0.068163608463009881,-2.6353014511104291,0.27434471073236533,-2.5164491378057696,-0.66329718662165471,-0.081953113039780492,1.6205617736093081,-0.72766843288245731,0.74617774763256739,0.78752073669738343,0.54074614497539297,-0.046182829696326679,0.52440658286036812,-0.088431658538419305,1.3561260327208411,2.2428389516691531,-0.3583310534728863,-0.074680599159138689,1.1155204641686129,-0.59259974049763331,0.53167328476294962,1.8661521082024906,0.035575379264619816,-0.15775630017607076,0.17183498840137681,-1.3495610376786877,1.5869661551795819,1.0660623877062998,1.971062454951652,-0.023661735501558371,-1.4375664953264553,1.3507439318883425,-0.21608716661276797,-1.3900942949398647,0.22320161381721285,0.59850702595417848,1.9067315547105275,0.158268365370523,-0.73527435549230002,-1.8980418673416182,0.84620407362126426,0.16465058217967476,0.36893364797721356,0.024622836314941617,-1.9507944611887111,1.5667001714603344,0.77525760065356464,-0.9581040297142086,-0.77929829371589088,-0.22890079822529807,1.6527801570605227,0.61158758748802111,-0.03172589748356993,-0.37830787635719559,0.43764905818558025,-0.32160496822086054,-2.0755531456474614,-1.0562262719632884,-0.27967656798032714,1.6123413595841538,0.73840744186883911,0.29778728626026829,-0.52370530508735458,0.40986003307692365,-0.72815102275401467,1.5112058419016783,0.86422375743649038,1.0578298067066603,-0.57108915631995416,-1.5294282166639022,-0.58750774157519958,0.23258143087229452,0.82341652720080705,1.0021204360908103,1.1129028451875669,-0.39959793663111287,-0.45298696934459026,0.81165172538561425,1.5001057132724018,-0.72396058444116784,-0.57890883594505604,0.68394885420532026,-0.55935680982140246,1.5302649952012708,-0.029488220093183252,-0.31838842575451337,-0.71614796792156765,-0.14944973893753968,-1.2246783346542116,0.20854509019517448,-0.69575584590218653,0.8052854477735979,0.72458241263918954,-0.50261225088274453,0.6661428581325417,1.7528074711548511,-0.31914878606411767,-0.49936806695762664,-0.18085126358717893,0.30270900872420192,1.3730640303947563,0.074463790171046498,0.79487264506414201,0.33362315406239784,0.37879024420403962,-1.0218864798561855,0.55988193584965185,-0.074364977712541191,1.4528380288763789,-0.89691448872581059,-0.66087673535623193,0.16254554320285469,-0.18447206906366168,-0.58396313209730388,-0.58197043121846781,-0.73976323899152685,0.19445318026639602,-0.44741514611853123,0.26230844887533233,-0.34511778861640835,-0.61698869577268445,-0.70755041021429244,1.843750073180781,-1.4800867607510866,0.87283894005449836,-1.3912763076993739,0.55381095024209037,-0.94162446967902902,-1.0390689275855916,-0.35399845569406579
-0.910084476634762,-1.2637395018231643,-1.0158636106913672,-1.4067001409729072,0.77134617775228487,0.26651885475312637,-0.63972020081435899,-0.34684711684910102,-1.8213587966838478,-0.55200912522777312,-0.21471966271519882,-0.51601231439432105,-0.67559789823566607,0.10854872363960844,-2.1166406038172054,-1.7645826609210635,-0.9117172011610305,-0.79401439336032231,-1.6343307267119411,-1.3357267435622791,1.1923484328228569,0.030511328437990547,0.12180158706722959,-1.5202469072524516,-2.1352909187761195,1.0357222878663837,-1.0092348259526209,0.43127761514676921,-0.1962959181526078,0.0073729652791890447,-1.1532010083783113,-1.3920025256546551,-0.7534300098175899,0.88777994241147395,-0.35592107314009508,-0.88456326228371296,-0.27550586652368225,-2.1383571055853507,1.8391197515878883,0.46385368952734851,2.2287295289079267,-0.65223937220172734,-0.28828220985795899,1.2979500345896657,1.0223624981826507,1.2183311617014838,1.236444893876341,1.4050151667386126,-0.50416732869453995,-0.73909945487235973,0.17861536375161347,1.357668737086686,0.62160135891438739,-1.2391023925728504,-0.97309182342089651,0.59169773126408998,0.27671145914192918,-1.8466074768950282,-0.80530278035223624,-0.94038105517676751,-0.29260895554928729,-1.1076415617972115,-0.32751565523784415,0.40195858659299277,0.93830334095295698,-1.6236350873767316,1.2566471000346955,-1.1213488745673785,0.16234386166366008,-0.9642626326572924,-1.6608688553312476,0.815879604857633,-0.30366837081843162,-1.2536192982770384,-0.32551682933853515,-1.4011258550033541,-0.18069320674367387,-1.7315141593119288,-0.13716805234968937,0.27712222412168874,-0.44994287072132294,0.95017198560791638,-0.2356490632961348,0.35611111434708237,-0.2896004247614527,1.688817571673757,2.2388795457182313,-0.27708122462416995,-1.110032188308318,1.2956399396442471,0.99007928229671693,-1.1101281336447177,-1.2445336115880776,0.72457783378344331,0.42274751217864243,2.2524385100047919,1.748339669208939,1.3098653140702097,1.3368558007608524,1.1627552536462136,-1.5373279064216232,-0.17457700953934518,1.8245760616635864,-2.8756865258649342,-0.72491545905267929,-0.10735347572497572,0.089108594291754176,0.81245773228111418,-0.38552690911273529,1.7903309912692271,0.94719771768521455,0.24557743906268367,-1.4828854388171677,-0.35435498980724012,-1.1891225417535245,0.25124210453304369,1.5682084451237557,-1.8620671136936948,-0.92417652395891181,0.38189395653060648,1.1029024187259076,0.36664375727638931,-0.15892547756120765,0.097943061008585089,1.7694995134418672,-0.23168141613332874,-2.1017169165896101,-0.022335141827058556,-1.74448450626421,0.86510050413220585,0.99887938093680373,0.18122109524882457,-0.32653308635656403,0.090317778159627854,0.19676931785121515,-1.2476023705279071,2.3823654265942289,0.3947782332201934,0.53653630147865261,-1.3085189874951606,1.4905155883009109,1.3470314878420693,0.10939253858359999,-1.2828499688083688,0.41367995443102312,-0.63007883464964765,-1.4876908475820387,-1.2679067388112337,-0.21355268691744619,0.62449055140487175,0.11138577187082341,0.31199755723019418,-0.15476983852227708,-1.0834852290379016,-1.1657216860973569,0.47204766621989108,2.7442579622394585,-0.063252943372753126,-0.34324503765572356,0.62258533290761275,-0.7794683749454594,-1.4781845752814566,-0.28356134321731963,1.6378869396048179,0.24865907994240335,2.162273599767258,-0.15879329977534401,-0.12311447104158504,0.39012353565335001,-0.94806896662276485,1.1227075609278163,-0.54641924490463689,-1.3283825689624533,-0.35750670950976271,1.8493600355720334,1.1206770090000704,1.2928562486839166,0.66924689126597592,0.47242289543747323,0.1716605488040335,0.46616156851447127,-0.13600355032541098,0.16940838808013511,-0.24507574147310218,-0.87261555776755262,-0.22848632040541278,1.2546922814583565,-1.0263853421517832,-0.064893234785159834,0.45677978097401617,0.12361594783230441,-0.020316103558088574,-0.029241358224221477,0.2655889881555476,0.39850337327937579,0.73182844794341773,-0.40194877724624423,0.17703317290213952,0.32160420972961989,-0.4483087155712861,0.07572781682180442,-0.75844726170656795,-0.61096813735313849,1.355399917282951,-0.41228638845534632,0.17913639782675825,0.43000690835795524,1.5463023521048216,1.0848768149385624,0.33569877514348595,0.78465634553281938,0.70341826990757894,0.06302666557551817,-0.36179404954593058,-0.61969996033127306,0.28606120571059585,0.81191617915625758,-1.2957019691455407,-0.16432698053903863,-1.5465257163568156,-0.91585526244916704,0.66548780413659558,-0.70871561992177845,-0.97841349746814077,-0.34332450119240587,1.8238815301673261,-0.17541701183087388,0.52290924545077,2.5268746968440863,-1.2786269621437065,-1.0028977480902184,0.20385971632337524,-1.0141814589045142,0.20459425916597096,0.093268245311040845,-0.88581629573878262,0.2692092749776438,-0.43049739381743335,1.3571454139312986,0.34448858182010089,-1.8691669806689155,-1.1098759523019404,2.0618900748591567,2.6150143057521773,-0.45275486547699689,1.8379028737903966,-2.4451648679516467,0.61608082705616907,-0.11195263564329105,2.830209219210202,0.25903661580969511,-0.25597516375280388,-0.97057700090559884,-0.99573594432747026,0.2423583103233567,0.48779524492212245,1.5145614262714246,-0.55641628375821806,-0.3951347113808612,-0.87907986092688195,1.0299670410413067,-0.26994443061898538,-1.3534932590423741,-0.4340174628993238,0.38182936823386265,-0.4299202864597641,0.13256044854830751,-1.5045670144317376,-1.0189755951757307,-0.40288297937819317,-0.28438198336510467,-1.3261843824367907,-1.422736114450335,0.4156833712511977,-2.1005819832886083,-0.52357072866658427,1.6037347558081498,-0.39157507017490545,1.0020382546906239,0.46473523971966785,0.39254048703425981,1.5082865417571794,1.3478704984003771,0.49349025115578388,0.56380464746314773,-0.71099573873182975,-1.8691014066447196,0.89513037173297061,-1.7913655150434593,-1.9567855246450079,-0.77703210360412522,-1.173557269899913,0.23794828630270187,0.51373758760943189,0.44940238033761315,0.60652505850758343,0.19349773064615139,-0.47696778641539728,-0.84280604487325905,-0.11091078827327111,-2.1992763631308416,0.78536024513166924,0.84431493173818539,-0.34859931543911665,-0.92857448907646944,-1.0812164239221269,1.0153982738718894,-0.1443915522830643,1.7009706973491103,1.0427863593895099,0.94929597238836327,0.019382691863212783,-1.5145147828247283,2.0291990264592656,0.011064256102822795,-1.2436084247062653,-2.1454083712268379,-0.99668472243796524,-2.5066744185034624,-0.36106089968068694,1.6862477235618918,-4.0258491678207307,-1.5497729860157097,1.5771690016042121,1.2553259188493553,-0.066552907981219864,-0.27799503616420901,0.77730747634981934,0.54119860378499673,0.17822470570294635,0.13303982191774674,-0.1151214619264254,-0.24554781758483157,-0.8030743344196124,-0.74423900028332379,2.5128206679171607,-0.11810999875982003,-0.64924575935613871,0.45827715095856469,1.566101953416321,0.15177659763515233,-0.0052237957264236788,0.76005767148510239,-0.44071068156844839,0.81766636061647013,-0.54414869816752398,0.34079171450183821,-0.042153550635912397,1.3542197266838831,0.69857519090474485,0.43782574667524271,1.1939324482852458,-0.32922420290846388,-1.0939288029900984,-1.6799115534937348,1.091231117144646,0.31235566228394346,0.90314337353944585,1.5037695312101824,0.6651224502739016,-0.23955370023282577,0.28725139817088963,-1.495741021372698,-1.3158366978811009,0.042191897865672991,1.8770544272209297,1.1611044193009603,-1.3275932424150252,-0.62213323252160746,-0.092886315345818218,0.28508989214134917,-0.9020754013698723,-0.91462623581474867,-0.45709424177955499,0.021592819115003558,-0.67801178504150628,-1.2523473696771321,-1.5153776977151823,0.47780952157048356,1.0288667197660668,-1.5292025623727532,0.023109311783214289,1.2622873564999439,2.0138185883602038,-0.56012100545725996,1.6393069112960972,0.45280087541836395,-0.39194451006679326,-0.82862108130779299,-2.5770243736645475,0.82031231594968212,-1.7892161999592053,-0.57838361636543889,1.0126405902689961,-2.1243081669300294,0.4359541417200023,0.67663802462346567,-0.90737186501692602,-1.5665837764622774,-1.0790656029355963,0.10784331064083759,-0.22845745865649511,0.56571403402774145,1.2428726004969819,0.45117968982735907,-0.49286580591112833,-0.56405865880868578,0.11548669485905408,0.91262517725171977,-1.4292465384206696,0.058238448205668363,-0.29696639700936961,0.090288426483007292,0.18837230163936775,-0.89890229779374631,-0.62111645634056778,-0.71627429664936804,-0.27050651174528551,0.092805752735929545,-0.25265864691207601,0.14979666481398121,0.13797971473653783,0.4532446250373709,0.74504503479360695,1.3871515836513422,1.8401557731563452,0.59376096048093296,0.29598692912022367,-1.2313852136120378,1.2600715023767708,0.46052501169826304,0.40358357581079751,0.010349363531123026,1.2913505027602084,1.5509256748876239,0.047739465766485079,-0.92790881705907557,0.55514822324888613,0.39166067929116311,2.2088724480230288,-0.42921834586173457,1.2303579839101633,1.7710696437873732,-0.19517574115512015,0.083039885433071378,0.54290226640374384,-0.75422822973277825,-0.99158951880228441,1.5412095292355283,-0.90083506130275937,0.99050169182578884,-1.1744562650193464,0.24084197662387419,0.57002497658385387,-1.4591275571150164,-0.32233600623982867,-0.95396029871471111,-1.0132807390944776,-0.18996787647078309,-1.0927011363843173,-0.24976658052801792,0.52629857332114571,-1.5949616878542041,-1.2434483131329979,0.26593111963019411,-1.7864733422971693,0.70471091386690132,0.72097277461738607,0.39110237809029269,-0.73773349460389592,-0.66010801262807406,-0.97541211370619407,0.87050510886753196,1.6836832957829808,0.066069608868415758,1.5730837635075074,-1.0136134067103171,1.2443097553598776,0.96145674614427079,0.32679137068006214,1.0758216258509938,1.0463705071412208,-0.11579640358708615,-0.39693580628406194,1.5723278282677908,-0.23425867170403333,0.51630153699812087,0.1049342253242331,-0.39973072632450818,-0.47462005173045385,0.54121662609453736,0.48443295774331063,-0.23615483728340303,1.8935411856650175,0.081784482522791385,0.06577808136235945,0.33019381558728989,0.028250324158940077,0.48827876041235552,0.58585367162354385
-0.96719498147198124,0.33093138902949076,-1.0663091853178566,0.88552890513111526,-0.0088120534748422734,-0.9119672355464421,0.2980442114491797,-0.58195670026336255,-0.076808271703401695,-1.1546350829128782,0.63208181863348267,-0.093529976960497377,0.93195074996807137,1.4398552710166057,0.60196785755016724,2.2911181940404846,0.95227219597866719,-0.032146499275992862,0.94631782828602451,-0.82896315992877778,-2.3562253964316668,-0.83325689461887142,-0.96714762134430499,1.3855672380764148,0.58863832362320334,-2.0887221629719583,0.1237863793390778,-0.789969823877266,-0.34549725491630878,1.8618830873441257,1.4614792804664258,0.78936541962658957,-0.56313282076983329,-0.62298885818923977,1.0260349616430284,-1.428824137718548,0.040750054284921802,-0.93235518716208332,-1.7687144193623161,0.67216284063161413,-0.49986080400655764,1.2100842002505463,-1.395494554499771,-0.23230709120056464,-0.39359930486612349,0.20006164941796808,0.029772477799168685,2.3503847372588322,0.71863727697501611,0.3348952564519283,-0.33438438734930387,0.4133402871720499,-0.26960095710807869,-0.85861734065661588,-0.51149498858103393,-0.22944399347512642,2.7012565926414904,-0.082180640047723644,-0.70196500165424691,0.53260485873232399,-1.0121833555720787,-0.47987107505473292,-1.916815962606619,2.0359451926807894,-1.5341824522237255,-0.87452908592431078,-0.020785593578373111,0.44525198326219606,0.20070855929164927,-0.46647086430746304,1.2295500707529659,0.84231013828682644,-0.34441971318893505,-0.099242071959847855,0.23870004647897308,1.6375982832178468,-0.69189230495552601,1.9047542467713179,-0.26233831196664437,-0.23262570511618944,-0.093903191215453513,0.36287097275867075,-0.52037665704952907,-0.14452853355672504,0.66601013817149679,-0.65776466601298478,-0.31614375902494934,0.76039833332955331,-0.55618753353148698,-0.28546737584449289,0.9067065489554279,2.5074625246497986,0.095428786144464747,-0.50110444236841378,-0.017498617315375355,0.18670193968602997,-1.9704634419791083,0.223201953242957,-0.16811903478635981,0.75365687490623046,1.4358556657782511,-0.021674027853740219,1.0434408401509305,-1.5689523391697566,0.52178184858050858,-1.4451706064001115,0.64731208139556451,-0.22519547617594216,-1.7034845078418317,1.2158959089560022,-1.0381487282416382,-0.28571550858721062,1.8693696043446868,-0.88246352762009328,-0.29793220569551071,0.25882993425387368,0.32043347056225163,-1.1570661837568954,-1.6794479947191285,0.40173590282453536,0.75558773634229481,0.53418780710642333,-0.55269738155056747,-1.3573324110868996,-0.62193982827645178,0.65647734631307231,1.7668083221405051,0.94814557914963271,1.5910320360721795,0.98374526674049489,1.6467748512664793,-0.87014730532277729,0.4264969015315806,1.3787976474848502,-0.61482796057456757,-0.84263428477947577,0.076745802685062772,0.6100052179098856,-0.14381080464573273,-0.48889386238345622,-0.77124629690277502,0.14667454261151544,-0.60266374889203078,-2.0796351534446336,-2.8332602364536106,0.24439596763438964,1.6342471175453326,-0.54005811053375274,-1.9260677342599455,-0.4611287121585616,-0.16579912124316751,-1.9128317601087663,-0.89853657069703619,2.2485777635145499,-0.041291523413087151,0.82090377413202154,2.0039989135349967,0.019901286987323689,0.45053860439049609,-1.3189652019055709,0.94246206644668085,1.3779822505051753,-1.7256867525659645,-1.6509987200941671,2.3348083467135732,1.033775300853857,1.1254742962321469,-0.091734696323052964,-0.067807653574457408,1.6178824835125021,-2.8457609564839874,-0.35112896147643924,1.3506214200549658,-0.48450501350589409,-0.407099918079465,1.2346741271501211,0.072285144951051122,0.097659930817167909,-0.94585002234928572,1.171462697401439,1.2531757963773953,0.91183400173989571,-0.48784165438340354,-0.47558654692257696,-1.1454077583515694,-1.2624485922622268,0.34216027468991772,0.97259522081206617,0.50190164307516261,-0.50306924121900409,-0.11294138999773971,-0.57133122494088484,-0.82453203435419287,1.6312939833724587,-1.0359069634171671,1.4053198335730988,-1.2859916803147124,-0.7571629029621797,-1.5623821945480478,-1.0860108148918208,-1.2269596890037977,0.69329186217475369,0.37862071337347203,-1.656477991617475,1.4219721788798221,0.68955927673633866,-0.32303773737301122,-1.3296664006333951,-0.49871977333609174,1.6293102511242352,-0.29845902087747139,0.23158029358702409,0.69868318843691579,0.23803818420353115,-0.88155530941897919,-0.72725508944801909,-0.50852949286699045,0.44099019166221776,0.8998431155169595,-0.41499980575457474,-1.4358820281013898,0.59844426835659736,-0.059211928185026873,-0.94440919717182947,-0.85666254442034639,1.618244033892082,1.6017208225217106,-0.099279937226629311,-0.88361807431033601,-0.60501070276256741,1.5279906047266405,-0.73066197793735499,0.98274731627332579,0.0637036853740688,0.65143036712232905,-1.1892071593570619,0.13035732355060267,1.1997765651777337,0.95056421566704064,0.49408041214341797,-0.055922950068588897,1.5493673824045266,-0.94656147600776319,-0.61645857252117608,-0.26660736272649727,-0.99877222599329329,-0.14002204964263751,-0.4297867377793988,1.9426758217024578,-0.48173444404044846,1.063857120819597,-0.35135577456531591,1.0087315847925167,-1.5613717792708022,0.0019936122788265609,0.25332252479395828,-2.0171653355168595,-1.7446646620077886,-0.3927224172519459,1.1438011723620032,0.56542570984377405,0.88484716311211775,0.83474473913767744,-0.56959869832631793,-0.36062612519837417,0.25849797390367563,0.33526199204866497,-1.4717912821071175,0.36791250203226372,-0.15620436877105337,1.1121106884847078,1.0773228362376324,-0.23454200874854847,-0.85806767819514107,0.73850112390754641,-0.9584499778301967,-0.34247815530565651,0.038652542005474508,-0.17433094720823239,0.85068017459309875,-1.6052091282253536,-1.0892239249902551,-1.2933701874779961,0.036263006597292931,-0.047927018217829458,0.27067047984184572,0.92906078935771486,-0.97617165613307244,-0.0049050247025428069,-0.12425348707068265,-0.53436689241208735,-0.53121425220681295,-0.74339241773278009,0.17291265296167271,0.022880211945050081,1.5915481486136274,-0.39233072910566896,0.93196433137745116,-1.5492530692630504,-0.028263860762180643,-0.57802650611320094,-1.048042445331159,1.0805948210194931,1.8479422585788092,-0.90137662799963236,0.34928335213279282,-0.45570411865298466,-0.61100941941774356,0.33685152067379148,0.944610206661883,0.70770198242372462,-0.26497392606467052,1.5666083982492012,-0.6121123232050284,-0.85603067883955208,0.82100679522899522,-0.5384301847668167,-0.3780873615923267,-0.78405771613388286,0.35793028435589042,0.95952756482838519,-0.46576962293159124,-0.21177163808279317,0.42733262098819597,1.3861871015005811,-0.061548310462103455,0.40955956290460205,0.79218777159368969,1.8871980172347298,1.0762238873662957,-0.51615989155351427,-0.86709116283360899,-0.54026429562656786,-1.1477351654832975,-2.1237188502525286,-0.71663804243669627,-1.8876517687952241,1.4845254696450485,1.0410643924632774,-1.3934945445426326,-0.98180330487415246,-0.31552618710329305,0.83449318636312741,0.92604981276300813,1.2122790681027127,-0.33648122724978197,-0.87048464031557782,-0.40997782337786759,-1.0894988485495261,-2.5444309367258939,2.1080947328481527,-1.3401029945329925,1.063048700108044,0.23266299746203467,1.5846637313038856,-1.8583259942779793,0.26219493711196401,-0.27753001691049933,0.71836677193457754,-1.3866600815255756,1.6383626427801925,1.012830106705688,-0.078954677354795375,0.10051724818879329,0.3183139164408858,-0.32603805497140032,-1.6731183810253398,0.77229443546689558,0.21684532059131748,-1.1126290446363869,0.28951271510879734,-1.0072283060789411,-0.094418132761149923,-0.48678836833344752,-0.063138193062344389,-1.2055559855765274,-0.60317708811652193,0.56286094110654139,0.31439353419534699,-0.0039719262642006073,-1.089480237822023,0.095374017713100084,0.18773664048213168,-0.57556241726855317,1.3703355296013249,1.0012928095462221,0.7926168411372736,0.21815304018552992,-1.5907600076609496,0.88130768524615521,-0.6471085191269399,-0.17826295978873638,-0.73334562398831959,1.030179310220144,1.21375751497629,-0.41701578299835335,-2.4673238457838522,-1.111577852860377,0.51820540102947532,0.30039866704871004,0.32242433525484054,-0.31903806185257888,-0.21444880496589583,-1.0063758089852126,-0.21776026909097931,-1.0222539385196296,-0.31152669676156214,-0.64883615804303452,0.84062421058056769,-1.1092054357077143,-1.791943997135008,3.9816549064163458,0.061697337340537887,0.99542687090053339,2.0787102221919977,-1.0025345750183245,1.5571574939104345,-0.18626711765066922,1.6073969705287392,0.42968364248808999,2.0703249864082403,-0.46444637286985202,-1.7093382943332822,1.5858691895435273,-0.74304981127317116,0.27582073382989825,0.53613490146876408,-0.065279730473943906,-0.95788700771886337,-0.95338560602641864,-0.52332050412475439,0.25336214315680244,1.7524891448802771,-1.8573475472806986,0.23684636145919793,0.22211143620271223,0.27275345526517947,2.8426828245635472,0.27190467435962756,-0.70602480914687804,1.9602402112860093,1.5087075996840926,1.3731850399135184,1.1849849110691735,-0.26206189282421904,-0.029116553336786376,1.6624592781999887,-2.2289977102556628,0.40690777722545357,1.3539289737729365,-0.48503883686136307,-2.0611006039908344,0.16542742590451695,-1.8167981128158111,-1.598837402096567,-1.6312457375634992,-0.4968910250000404,0.11673608856146282,-1.8050979800442835,-0.58806286345803982,1.4921525527070849,-0.96378398972407242,-0.81791446247342325,1.9956343884707102,-0.57612770110624534,0.5904846793575308,0.52052436988590278,-0.71955073356943966,1.443804402157709,0.21883881986274967,-0.29985474583723343,1.3668849049960534,0.43982168934678351,-1.592332463363145,-0.67798946826534379,0.080424411461428674,-0.056248711639153189,-1.5623639214333509,-0.30818298125428706,0.063921042564732716,0.52155863474981068,-0.94594993179640374,-1.6346583682834883,-1.0224674944377459,-0.78214347823625185,-0.20716485673488907,-0.46744682282490585,-0.87745172654456338,0.2695191069965987,-1.3973104500674032,2.1551743895613504,-2.3737047173325592,0.94970374824723869,0.76552558319598685,-0.3327163097662818,0.32825267739497177,0.87338555712772692,-0.65720320352483852,0.24569461139402765,1.278875669230382
0.76641571863622882,0.55909283253768349,-0.19200376318441237,-1.7244379491852815,0.66581695918168726,-0.099314017363964585,0.65342213461859089,0.66793064812219416,-1.9060245806500644,0.7975777677549698,0.89214316889160661,0.37469305424704952,-0.26659071186511107,-0.034707525919285227,0.79732128347751985,1.0696526733737777,1.5968585645576328,1.3935209944872122,0.64288789553754599,-0.92186905179538192,1.9323108214311537,-1.2341687908164898,-1.3196880822490422,1.8596256220822363,-0.30673456402259808,0.76530481276568996,0.68114231316243057,0.96119244799677028,-1.1438705531714166,0.64773199831028483,-0.20676191219131329,-1.1242174631517108,-0.12217221105676403,-0.54617504640543246,-0.11018713538125741,1.0550945853903886,0.087430002944613061,0.41774999641849692,0.1210990493799179,-0.77987927503960286,0.88149118155430051,0.22827786045571399,1.8939775343516594,0.23876845616812944,-0.082081469374177138,0.22502563361954506,0.3216675254703435,-0.26892069761821774,0.21104430450836517,1.2093875559956058,0.96243004405363819,0.23262346357795527,0.51244313554599463,-0.21158732167166536,0.97774071833048959,1.094266683217926,0.83554390438047454,0.17660980271279447,-1.369719893949739,0.72544730648714739,1.4618486740892647,-1.7503773516228494,-1.0697603194403145,0.52329851729009169,-0.38958676570598061,-0.99095789391477274,-1.3013595322238833,1.6580256187259022,0.70932305351532821,-0.033749847829160858,-0.016178052514419283,1.2458074198182596,1.7894740985153708,-0.72930129404033817,-0.63671836082754629,1.2278372278404364,-0.4495543880216894,-1.175399532405409,-0.27856428830925173,0.4421395889781754,-0.93396840432651673,0.76051376953030059,1.2609262161410051,0.22294165568583391,-0.25097019572097601,0.11217883140291852,0.74139915182078109,0.185128888006832,-0.59909675511913485,0.41414920813877693,0.92835797056304448,0.63275593117240103,-1.5707409293768282,-0.37297213781419097,-1.0651089853423381,0.4723808436668131,-0.67087223030803744,-1.2996147030812764,0.6144394798121009,-0.93857490261717558,1.8988761478804117,-0.80356117608482602,1.1629290048232357,0.11098590510289819,-0.4925702154991381,0.42543398073277883,-1.0173084294189481,-0.57152316380371837,-1.8907464767496012,-1.3710087905889441,0.28299224974293197,-1.5949182252738971,-0.76584409539886267,0.57067893598843911,-0.097896542222881397,0.4023161935648375,-1.8161227735696988,-0.56156493534671059,0.73305167251280245,-0.25278427512558888,-0.53528115799215736,-0.72560425820180297,0.12754706915399019,-1.0712413136278762,0.7323758290323461,1.9055308578671972,-1.4859694542286026,0.30029103330648688,0.076396762932609427,-0.060537036711819828,0.93043369415908239,0.35897284777069366,-0.24108173373304453,-0.1862918180751188,-0.65878258226064657,0.4291635926654106,0.32793847365220502,0.084864277414455805,-0.62728025767098505,1.342698877754237,-0.74007018611720898,0.3916190755988625,-1.2307492176177783,1.2040428103204208,0.2281204366474294,0.67343665961364441,-3.0878125837212314,-0.22463358553119653,-0.16984528592932718,0.74369782984436583,0.095997984045238877,1.624965365708235,-0.51649418326088259,1.9179369637427253,1.1890473180660475,-1.0632558517814636,1.2258756756198104,-1.3773137434782867,-1.6624373380409927,0.26086441336232774,-0.27222662150782506,-0.32271563092084171,1.0734372236600298,-0.7817725731155678,-0.40036514100512183,-0.19535576175365041,0.36532457862263679,-1.0424996379818454,0.57016353891054283,-1.9056330379902255,0.77874237452546424,1.2456899662866021,-1.0704338094078691,-0.2916347971966789,-1.2485339748052466,-0.28335852154884222,0.18714241019746822,-1.2193061202941431,0.88076528025129752,-1.5394612877695544,-2.1793393606500744,0.019642892370770007,0.76042483284887985,1.4616723750838558,0.65392849774692885,1.0900685978483469,-1.7267122734909994,-0.21753708613131939,0.23701901539681067,-0.6719979237413205,0.54083480389936511,-0.46873433228971795,-0.96339162296284442,0.7191557739909491,0.33709648827893429,0.27905193285025437,-0.45652577019133778,-0.87062961433236863,-1.4491739877457004,0.44306386586670987,-0.20935604976349048,-0.17767611260248822,0.87463269381386588,0.76687402856330222,0.61377234270433645,0.4102269480517387,-1.1513459342673238,-1.2346732150515256,1.1299693569630307,0.0086164309093815766,0.74469860404645993,-0.45274056689343711,0.42702469839933554,-0.62250407315559919,0.41156182823378235,0.65616655271629609,2.162229216630835,0.5521024884207536,1.1431981205341779,0.26051273874512487,0.64502247449907313,0.093743542071846583,1.2146589317134737,0.96620286807795197,0.21076686288773278,-0.75958640399870792,-1.112388519955599,0.15509561545675188,0.93966428893199694,-0.083981894260745649,-1.2734466266137134,-0.23218056107319471,-0.76301914396561699,-1.3714148354651361,-2.0721391522958461,1.1692336311096607,0.49017358273105405,-0.42020177967649042,-1.1816341240282535,-1.5308067825354263,1.4863177855906939,-0.49004427292513941,-1.5461799249484782,0.19616587554551207,0.13836414036179465,0.42754915752088846,0.4542273680113742,1.3881954111259482,-0.94651492378469937,0.016186882316830652,-0.68548610433225055,1.0210200322332958,-0.89981816349705912,-0.14769966420194594,-1.0643765168620112,-2.8456035250467338,-1.2034948398703911,-0.11020341269490685,0.64248702202245989,-1.9156671253187614,-0.85642845863152739,-0.54999087433789362,0.66980280505979894,-1.4253107758745229,-0.04810581707207056,0.1913591015824711,-2.5277177100119261,0.94162459932884923,1.2030976473578527,0.22416740515104719,-0.11130204208078893,-0.36551493238520444,-0.82629830523536829,1.1743408873834347,0.49181896890431082,-1.6928829035099497,1.9155203345689165,-2.5061874877384076,-0.38883350288580132,1.2943522508046945,-0.84784432707374691,0.19692475629188202,0.31551331495451629,0.20879083250653466,-0.58264755410509184,1.3306634090911493,1.0043672638727925,0.00017025909613525907,-2.269144987274573,-0.17055129934241756,1.5819700955738001,-1.4710709616371869,-0.024017759853530704,1.394417012716797,0.51878770641165395,-2.5852471180808223,-2.3143974553977182,0.16823267482205925,-1.2460539016822365,0.66115404580621584,0.95856114706430606,0.7595543962030008,1.1304038182311982,-0.58292287786074581,-0.30989300894298288,-0.63467364941893456,0.9470770349658999,-0.11468961016857564,-1.100265649898069,0.58049946097230154,0.7438176391589143,-2.3270375274403716,0.68573579382591088,0.71912872499395386,0.23150976197521889,-0.87705931792994263,-0.41994815487575288,-2.1374653025101753,-0.39714513674112967,-0.15841743077290601,2.3418126772076304,1.9848252748688517,-0.6064966536547628,-0.13780313692744117,0.11147689946807328,0.95440197393719062,2.9772854855369437,1.0806949999443973,-0.20623095311375839,-0.40527890065990013,0.41090771525454406,0.29770782664184103,0.022453648644886151,0.38764814741955317,-0.23264993317501984,-1.2523680508945374,0.59617985407631313,-1.0988085122149076,-0.85076519270817552,1.5685222461159243,0.36462517610124634,-0.65533861089865475,-0.17300893380327884,-0.53641831585805511,0.56241787172615842,-0.45586947857870885,0.93680502533193877,-0.77156311696187108,0.088952457231398066,0.89771806141335497,-2.3657199273464546,0.93279974036780755,-0.31346632061697521,-1.3698523207061133,-0.15834112436671,1.9061079336149271,2.0685495508481022,-1.4524565803543423,0.12600866678295747,0.63449170165790092,-0.18297922357372787,-0.32416885303718296,0.047025899929265591,1.4718802199273513,1.3635642929541754,-1.0518221374557681,-1.6997484647287784,0.54430289804484211,0.81854202203551807,1.1228077718225182,-0.3415714976635606,0.3121426934564514,2.2789788980071237,-1.1951033701480749,-0.65951136873421534,-0.062951520380158499,1.4271925856309424,-0.18825495529495839,0.31150555606791236,0.63794318320919474,0.029736839702375468,-1.9779607394468359,-0.84743659039076813,1.0604412724958245,1.5978735147746366,0.73082341951522156,-1.8074880710085832,1.4747806782506365,1.1623618477998616,-1.8423374650331037,-0.0085062672596458427,-0.13639923712298874,-0.58614938487546375,1.1010246069083616,0.34958577477979835,-1.3782008536349977,1.9586397521602879,2.0713137112170608,1.0792459288235161,-0.53498321418358064,1.2775729973345877,0.35351697515125552,0.73287461172294677,1.1192054024751221,0.24234478427363176,-1.416969873077387,-0.93274499425645163,0.38929238980285152,0.57906058181548004,0.047547653294761065,0.39925143910118577,0.034776815545021794,0.20363176245237749,-3.0511797986970266,-0.1059746775921723,-0.13637721254798088,-1.082469082460666,-0.34897154887959159,-0.82072832908432747,-1.0155157614518262,-0.31651044553991275,-0.7643578621192586,1.1053706787747903,0.47087159655055583,1.048118555008307,-1.0511303967988657,0.85297445902998825,0.44241236365788328,-0.8009899886273284,0.79024606224923333,-2.6494971641663452,0.71451142012144564,1.4545757644960442,-0.076527708860575056,0.66153799693974902,1.1230230605653659,-0.2785651506364975,-1.2984772690951523,-0.74840628410388321,-0.58274669692933545,0.16439741724239904,1.2895194612175909,-1.3514597133187396,-0.4277070531796428,0.78653639281864263,1.2680831801964003,0.50874780609313253,0.91563470761392218,1.3999706160106551,-0.063680789555293507,0.82951227539374173,0.24105010761065615,-0.11875051154361976,-0.6910479412888626,-1.0946534043662413,-0.81252895213906684,0.199181965452087,-0.15509796873434115,0.56724083222576105,0.81487991651686864,0.44541743625392599,0.96533512259362619,0.4498786378823415,0.0031869811831116549,0.20939546009786855,-1.0441855463893395,0.82370860247553568,0.65216060575363966,0.038508920717325333,0.72315364646621727,-0.7595614697769687,-0.14589968895548,-1.242928592215037,1.6320059514235903,-0.91593434300483367,-1.0910133376886533,1.1928187944715627,1.91217572603095,1.1917740099235068,-0.26302809167566771,0.51149876119329329,0.9720778624961609,0.47863018951670178,1.3931099267288221,1.6070887818373749,-0.6129903688432411,-1.6079647425623871,1.1005040323176811,0.29569616285201594,-0.92555600955456674,-1.3063070674260207,0.55962863652648809,0.3197826466468407,1.5270207010640156,1.1040178425622691,-1.0402573745799417,0.85089941031066052,-0.60954296456932988,-1.2046106780092212,-1.2079578428271713
2.0991505664567911,-0.47537222308141019,0.72164679591054626,1.7820980407772633,0.40261380896190946,0.83043033672792543,-0.09069794081477002,-0.46405664004588393,0.48877563019774406,0.068422613381252745,-1.6402831006977561,-0.81187750004475456,1.9259403747457517,-1.7903558265423585,-0.35051324142013512,0.44463971668408891,-0.9253314349663978,0.33848891616263826,-0.70083933939916776,-0.89413307266918596,0.040411314412825888,0.68771065557727684,0.23266877337929107,-1.6396153981036727,2.0353028742687362,-0.24360675073029528,-0.19252282014349614,0.71703498501569618,-1.1744526616284812,-0.035536305726159532,-0.4258129058562925,-0.05970737284445439,-0.32333327691216784,2.8887044865303269,-1.3520647810067086,0.18428529571360816,0.870589678886734,-0.82212359671109836,0.71900635887088105,1.2497180504868679,-0.057999942167553532,0.80751502432884825,-0.31242486016810861,0.21710938197215976,0.8267649910737257,-0.39734275802767771,-0.73006045189291102,0.35418994643820184,0.72336441040790678,-1.5140851272307059,1.1701500129094595,1.2059612867158775,0.46118004732669937,-0.29830081464273717,0.082408930609578435,-0.054864911933744563,0.51273368930310192,-1.2111540154072356,-0.78487320608472266,-1.3377990784250147,0.30811856490315709,-0.18923597244103396,0.34501531026188076,0.97513905668601031,0.65675356974746235,-0.72112927944535321,1.1064976325827649,-0.10081147665653054,-1.1068674972914858,0.31005010792554438,0.42712517146150025,1.1806155510618996,0.36577046588451051,2.5557329822344954,-1.4074384444228014,0.55045642245926463,-1.7782112970417698,1.3903389222076912,0.9329720210436212,-0.54914484518835049,0.06436273664115659,0.26730359879880949,1.9273803367430082e-05,0.5212596754197647,-2.7985301838358305,0.26641500892210773,0.079227066586756656,-1.2946178219377016,-0.056231789049260315,0.71968013402683673,-1.0351009757047853,-0.024090752281072839,-1.9636283091893059,-0.12564281259497626,1.1110549659129081,0.29361174356540592,0.03477171988946165,0.023253312886727426,0.62717706135236362,0.3042592234719983,-0.092558766934377174,1.6672644155442664,-1.7166949770824591,1.2219621729892336,-1.3298313202059653,0.099503696217963705,-2.557423226492654,-0.1400840819617733,-0.63521536321283911,-0.18774433110273708,0.16129015956075538,-0.13726019561558148,-0.32266554649103113,1.3584391763515424,0.76904740845192898,1.0079232796754802,0.37375380783967965,-0.15745640451821466,-0.31622295696618746,-1.6621313187796991,0.25274861301183671,0.040290275335357686,0.0001637300140734315,-1.1915928445732005,-0.22619750685043796,0.64822414901708936,0.62719770481900849,1.4065632319096637,1.5653464083988211,1.0006832806464188,-0.60097515215266295,0.66054777257433805,-0.10604693811231325,-1.5453710024234648,1.3755226546077022,0.63706832329891405,0.46278469178274134,0.37879247136736555,-0.051702970469754965,0.61078791838385815,0.70853067655313828,0.60577009357716582,0.040329068580794061,0.52816750104441224,0.82034375696185169,0.52915501258207331,-1.0064106391860601,0.16076169255096245,-0.1992912415424149,0.39252464884946153,-0.039349632250407912,0.8081235530429226,-0.55781905274556787,1.4857505600978385,-0.99593662527549887,-0.49627961311147939,1.1348585777420668,-0.063703485627955733,-0.68690809604172332,-0.69190274638248872,0.36704928788166591,-0.74099093313430509,0.0091653865524196996,-1.0021038465907024,-2.4419364493108082,0.93250101170368316,-0.027768215987880863,0.53926305264360652,2.0724908812096019,-0.90614961295079322,0.77921559352977343,1.307652378392383,-0.26804777506125366,-0.27934532237131671,-0.49991729674531477,1.0868852568339322,-1.1795733752870408,1.2567100610029056,0.54100546896368595,-0.090379018576813949,0.25239935610958242,-0.17324050065135169,-0.22742149248425689,-0.54998621387927404,1.1947967355451652,-0.23542727005857839,-0.40823655272177511,0.70996825226748972,-1.2574889305978516,1.6710146917113096,-0.10910353104939269,-2.2766228367651791,0.76472845907554787,0.92662310529231695,1.1382319301472426,1.4858773562337917,-0.89268186660698912,-0.73249138922967449,-0.09429024325675181,0.38674260063054755,-1.1840107420298627,1.6950846410380682,0.49108431559507348,-1.4446215993461722,0.14495104431045372,-0.39275343669312573,2.3055743745467976,0.61445171489228034,1.5641990466182225,-1.611468321857304,0.083833943527118135,1.5738653185879619,0.027726751239885182,0.40264067127717312,0.86941928206061625,-1.2277988415517673,0.28307118394593067,-0.64166938639980242,1.0629863749576338,-0.064166524673422598,-0.51982268782953422,-1.8371935087938702,-0.088157110070372899,-0.80353256863402145,-0.29140386240256022,0.95870424342999949,-1.6588146922273908,0.28164061813809732,-0.012587243324586897,-0.6742881163682759,0.15212738975738171,-0.020170221438160794,-0.3568445581230732,0.50210582511930013,1.4950715165558821,1.5454828064108472,0.25178823473239964,-0.10914458314676358,-1.2563033522587259,1.3305573706480502,-0.38010330163255046,-0.60882233751408976,-0.58472910804208289,-0.042054072937612215,-1.009165368412513,-1.2438334855182811,0.60880755384970076,-0.31953464715604218,0.11003684778938987,-0.79064583556403389,0.66085215517808304,-0.004133067378255432,-1.0739523696188118,0.69008385638883374,1.1531960539295445,-0.82633656733311778,0.13683780650150926,0.90415594893211537,1.6144476231544305,-1.1855948919418213,0.54334688610109894,0.091099819161159029,-0.1880033411150008,-0.97562303694649744,-0.85481019453172769,0.83094530197366734,-0.75785363167052122,0.78412617196667656,-0.22372735331288959,1.5695811969568167,0.8155926530018569,0.81690087081958906,-1.2171179360431199,-1.5052910291469892,1.3934205101443571,-0.93288191567100232,-0.36662854008823059,0.76268272227514289,1.8523187873651528,-0.66283456111263317,2.1534236811843992,0.24036797498173879,-0.66026383456038129,0.24892341433113871,-1.9965439136723595,-0.65312971277229326,1.6205541843752553,-0.48256257044983536,-1.370031298607759,-1.484691861541815,-0.71937085131454781,-0.058728452751857868,2.0347473961235658,-1.5448115947587002,-1.1214040695790486,1.4220162464355999,0.45007002018223197,-0.84616037541761024,0.4190030250132184,-1.3494718856960441,0.56011915191339379,0.90347015574852274,-1.6424052185358053,1.1587277694941867,-0.9770487911762451,-0.79978840124427564,0.63002414669122786,-0.39306903306561036,0.85312201721058989,-0.93135690551623673,-0.43665408091955699,-0.40693828402749016,-0.60075367758226883,-0.79716424293806787,1.0856354734840563,0.80327380648897295,0.0025833577954718122,-1.696585805646502,1.6630218373338996,0.80951672653925055,0.38902514944813255,-1.3877468980441596,-1.0672609096511787,-1.4386028785745066,-1.8420683947119123,-0.35336256210359579,0.301152178913482,-0.2255798506576405,-0.70157173536081474,0.10068523081480868,-0.27906871043201431,-0.6211813236925724,-0.69761055225127544,1.5460008096203881,-0.80260341128352619,-0.44776165480258157,0.592402364771903,1.1776366673908263,-0.90963854180513626,1.0558029592221263,-0.19063164501682958,-1.1468299283242012,0.12940605862628243,-0.91689767357528196,-0.86891409857593871,-1.1216349179235228,-0.81331942992062933,-0.6369182901149405,0.50102273032001809,0.7596925364549636,-2.0227773659602359,0.019670864811830911,-0.21635111166982579,0.62140054638374964,0.21015950166448566,-0.60341473962932546,-0.91290632080368195,0.22913689381144278,-0.91100653579737734,0.46719442438387981,0.35657949155447055,1.5527148538450863,-1.2707023803813067,-0.49916151729851987,0.98831066160115078,0.76636614960846672,-1.2031692163786889,0.02150886257365477,0.44679196419817763,0.85808360825867036,1.5331654009995208,-0.98228541337944131,0.43216783874599618,0.19069888770937318,-0.022101220094307344,-0.72861459230933379,-0.048838835606664611,0.037988625236578491,-0.21113230240442013,0.42656689113676988,1.771552825541479,-0.65729323272671458,0.80906949315821031,0.70075501801576501,-0.34608105615325679,0.37700721800564485,0.75895723403203819,-0.16086163222542421,0.65237365365195799,1.1488857910537891,0.72947514183422224,0.55237373059156569,0.14852176600396172,0.50748774243707373,0.15186350202651652,-0.74004817101867837,-0.58060230767603926,0.22896820387562677,-1.5400341020241446,-0.49327363445197925,0.50825114303529151,-1.2614669957177977,1.2927101816555087,0.23495147558420526,0.79346374563607358,-0.67972496779934688,1.1904372063842137,1.6313877858756305,-0.080555501334048679,-0.39662945842771224,0.42366673401546434,1.4946267196957839,-0.36289573584982859,-0.34440772438301681,1.0545417111200248,-0.071333244167844506,0.18465071522317286,-0.68806480685948723,0.22290086587671273,0.5385864168658292,-1.4695961644658431,0.89296226306708149,0.98868739061537525,0.87786753184023625,-1.7873119051431263,0.48196838033218731,1.3669264988896674,0.41612587686666902,-0.31295502773726369,-0.70148341644341194,1.152817715742247,0.27066633830200049,-1.8684115744582948,1.1517456998790767,-0.25389165814943587,0.02575633670492997,-1.4624082570213608,0.079206022728142547,-0.37173715024338977,0.61363714843993811,0.86743313640148045,-0.39110138481978113,-0.51346059637325503,0.97229321119206713,1.1783349590139607,1.5590986515266201,0.69500546348643355,0.17485451593074297,0.19516663460088085,0.44171774299523536,-0.98104847479600688,-0.92736712067637461,1.0593670890284561,0.61980548402981639,0.49027333171274057,0.32493177632603693,0.33100887805083351,-0.48056127374118957,0.63825127485282884,2.5542768847268817,-0.043062823698057202,0.18632436093015045,0.37592450587742748,-2.3493803287562463,0.67868486981555565,-0.17592657468435638,1.3567729690322166,-0.26625420610545308,0.90216300623094825,0.22221440664680567,0.14887834065652805,-0.84484790437774893,-0.38423585326471421,0.12907175157390094,1.6907102505897296,0.22863267080024857,2.0683675962757713,-0.041814655646294843,0.46237066138654859,1.4532991472762706,-0.39754549345943979,1.2519156522052854,0.28370633417067642,0.0067990025699297928,-1.9128031525066913,-1.4703409269951997,-1.4417817561824671,-1.5020962328912961,0.045505983927384246,0.20919738457697756,1.067727141868863,0.036986005620529512,0.11922375428755383,-0.22459400368736471,-0.38754746987412275,-0.82654710412020516,-1.8932567292772255,0.28830491334604263,0.033609775744336691,-0.0071987486520216333
0.57417322457550313,1.4877644251146385,0.86635577054287249,0.65722307678646297,0.234324706069376,-0.84163919666376008,1.5569172260427884,0.91630225755013828,0.73985049549708748,-0.46221037111826363,-0.20366573753522671,-1.4559099221501528,-0.88354495783718234,-1.3455433166352204,-1.3755883632430153,0.73536030507319317,0.047306443746623801,-1.4458522650373735,-1.1431177603000628,1.9461611046224296,-1.8443177574818732,0.68223992572813474,0.013699498984129747,0.97847933749350535,1.0843512938284425,-0.63203980188259046,0.080742678661978692,0.018581659473486615,-1.2429902956182981,0.26830420049267062,0.29741265329639055,-0.12067173951796244,0.79650575318289674,0.96613709909701728,-1.4174034682592922,1.5727796628126314,-0.373023789276338,-1.9594384648899543,-0.68769356880269661,-1.0126281784101006,-0.014667538904779839,-2.0567262823906511,-0.79600848262995982,0.52926893753171655,-1.6759832376859982,-1.5196397843189164,-0.92447645379251964,0.00036608775055847471,0.94085593242157939,0.20939391408954919,-0.38734207555183531,-1.285745239438937,-0.25928719420476326,0.85093280648071068,-0.0043602403959013851,0.49437816627944953,1.4555466708573346,1.0193174869354138,0.12192606482723359,-2.1633285526735158,1.2185892469025343,0.3628932471879045,0.46080985521381407,0.67176456268017914,-0.28050575866169059,-0.69918446110943133,0.41049012322149958,1.2856249835930391,-1.2989410902164895,-1.3986241434137097,0.49940113532515928,-0.68632861336260054,-0.5489688597734339,-0.45537281476529573,0.4877841543632187,0.36553545890125477,-0.4431651404444184,-1.361126976108713,-0.3649645751458197,0.57549244928698584,-0.27891758185026555,1.3447045281972594,-0.25588972268354815,1.5094304064633621,-0.53331677260178023,-1.7092988703033243,-1.6014580564060579,-0.91004929670907142,-0.048235282028384292,-1.1694855862477611,-2.5194193104517661,1.9599133003763025,-0.32223291515942032,0.9195484825409288,0.020483135892800777,1.4927206703367142,-0.12919727310492185,0.72336107026082896,-0.31366776947860414,0.2709988799334499,-0.10165525280306481,0.066417664404864796,-1.5739268170550134,1.9762049755883617,-0.64574583803448282,1.0133450053754611,-0.71780472439442178,1.5145614339382998,-1.8066678545158283,-0.51023553882839501,-2.068200243955467,0.519702359891553,-0.41423227463592605,-0.79351727419259566,1.5125917732303704,0.39358511379767591,1.4915712959312182,-1.4112294874311317,-0.37196013292519192,-0.47866344955455592,-0.45864625625362493,0.2096025526846482,0.01189686777091363,-0.019277254121757799,0.65327721489160395,0.64172554401705051,0.18896879347457257,1.1747612384893049,0.44308173338460416,-1.0558929796091732,-0.16556520735560401,0.26631432417988971,-1.8631127897755426,-0.081005245783964175,1.583151852945091,-0.96541104538966649,1.0637993900973142,-0.26972831313168616,-1.3111284775382968,0.42202967694954613,1.7358502729308321,0.12259750961906632,0.44661023217256246,0.6266213695129188,-0.47525179758206387,-0.29414925552774901,-0.27040962137447111,-1.9139795881779902,1.0938284410000396,-0.6866778813628146,-1.9934786521821959,0.16260447197457997,-2.4171883773372325,-0.1982891452577408,-0.27026706476342655,-0.52624946021708496,-0.81994657840592577,-0.83894269092532414,0.75482282072305518,1.2485130728487028,-0.53026449016379773,1.4124748818295736,-1.6245830175800913,0.29190594041689238,0.17387278590999086,-0.57752079862564887,-0.26107367890756783,-1.1502280965538825,-0.31676192840040851,-0.81427988978921317,-0.43539770252538373,0.47217095613453774,-1.845956805964311,0.32587504128775885,-0.77123240864699905,1.0931445107779894,1.104397097818534,-1.4762475436069618,-1.189599984072808,0.77540602898463917,1.1489017952172154,-0.34552526652610505,-0.28737077553458107,0.57329314140174226,0.46438517536125951,0.73921429992370857,-0.30582953695056603,-0.58393152078460087,-0.41413541803709447,-0.01527778194362143,-0.19958724971618549,1.1859876320170268,-0.37118699413438511,2.6451679804167871,0.7559854149865699,-1.2976829401153116,0.2011530639408817,2.2158441040336223,1.5566765205432429,1.3274985655302161,-0.4907049000368231,0.82099744900678029,1.2278456431561473,-1.0140006072297201,0.072259869211572209,-0.74337849048776816,2.0706158987172767,-1.0601831615031949,-0.57830985553421832,-1.4635425272837546,0.39784326296004152,0.095154230167788012,1.3592048159390322,1.3291528204878216,-0.76812821413675447,-1.231042288599371,0.66145529923812685,0.54522300069307039,0.35890632172740716,-0.62045598388116951,-2.0345179074342155,-1.0247341276708946,2.1457053890344304,-1.9493887062230204,-0.69872345147272319,0.068387609203682212,-0.032990174379920023,0.83847651716647054,0.28897000538784595,0.20665213852689085,-0.093555134765645906,-0.85950689022309223,-0.82392886764412243,-1.0641811199182922,-0.95808812671569399,1.5082497032601925,0.72577470359265928,-1.0056721098474224,0.69613914554195833,1.6490405797301448,0.55171302272280753,1.7442141533488975,0.19455556619085948,0.41777129564123661,0.34645481347366869,0.60932222813179293,0.032199636384316339,-0.51498144218060493,1.6021511456482158,-1.3215788322709201,0.062614759941839807,-0.15400425780823684,0.065545111389500615,1.6139609258495475,-0.27006757753593735,-0.42811911407962389,-1.3895787560352355,1.3093035900031038,-0.055901306321603131,1.8563675998689764,-0.4282372900841897,-1.2835501690164706,-0.77505661097837053,-0.5243828704210467,0.16096008229276682,0.85908778134673969,-1.7807568401523814,-0.82890046840567966,0.61529970151121316,1.26051554418697,1.1144701884000356,-0.14047001192938524,-0.25786391704499911,1.4043487407828938,0.48822529078799587,0.08862398274389735,0.91935048396260033,1.5237064452111355,-1.925933138385038,1.5675494245295631,1.1242641131097364,-1.1542177490226864,1.0776512818803399,-1.1768115378535136,0.35428022926303909,-0.18749673455604518,-0.47482311479516204,1.1379924910832182,0.43970918522461905,0.82081043101666107,-0.91634492807101808,-0.27028302972196039,0.47234831066262167,0.96123007402725402,-0.09813233784698322,0.083049497452585927,-1.8490447050641852,0.16721659369270561,2.9894260101052121,-0.36413774021383871,-1.3802419036810201,-0.18155103582327831,-1.4720154954132834,1.3996805059383892,1.9121175511056649,-1.1430918935266221,-1.1846702054476597,0.12286234950033843,-0.30890875111453947,-0.94236821365357715,0.6690496326744787,0.49407239868470842,1.2372017411772014,-0.39258400515061237,0.59368157729676752,0.95288962754632056,-1.409215191653685,1.2151429600895223,0.092069875634351012,0.96587439295283983,0.84834134938146288,-0.65409914419320103,0.48625912767987395,0.0093844571886802213,-0.87371162205669439,-0.25177269180634054,-0.2835428224346469,0.75491870158610175,-0.099009685127366534,0.095032112622038242,1.2897871156567886,-2.0841289204286615,-1.5684852726231451,-0.11685781061017432,0.46868158321951325,1.0700678798140766,0.79411327369235241,0.91694886979940915,0.9866015785886777,2.0949116944442046,1.1688790422806605,-0.22775531643667324,-0.18329757198872315,-0.67608709853644655,0.11039463737473189,0.61134445556911121,0.50938711739825659,0.46256671100852276,-2.9075464398528719,0.085080700610050283,-0.44701235227052516,-0.20134367156205332,-1.4128726436512471,-0.14068739422945981,0.1142694625018328,-0.26975301740431767,1.9531255385862936,-1.5199261962417412,1.251868569527455,1.4239388976479621,-0.033398435331656706,-0.23801705183158639,-0.52527149096814785,0.51607415221908648,-0.30929658655167208,-0.4476865589449881,-0.29013248376300921,-0.2203638727244436,-0.32659647542717546,-1.2816855868338706,-1.8403698746671338,-0.86068773556331835,0.93743117625149952,0.87268301885347765,0.31987539696454759,-0.12681297450422474,-1.8096549636926846,0.73146392267865212,0.33957203831649346,0.30918327933525264,0.93254288928248474,-0.83844726230600619,-1.3767623791266406,-0.24642196515218878,0.17927048387985292,-0.6153357199099132,0.39469740993256813,1.588082383607514,-1.7090984982607333,-1.1039720349068602,-0.67243803869267915,0.22083515649668709,2.0244726587761295,-0.84260171580348509,-0.61384051561406094,-0.82392262024730822,0.042294474946319952,1.5403444861611897,-0.5653966287840001,-1.3441991373627353,0.73680972529009869,0.82270366238311543,0.33872612118566192,-0.85832139942965258,1.5665356479957506,0.20189903013244914,-0.98410502825898405,0.17674512914225313,0.91899105659910729,-1.7792151912180223,0.17585765538784348,0.62771828467223323,-0.26435499013310937,0.51310447757691657,0.65227645959176439,-0.81624637470365946,1.5295675128318025,-1.0874069119901233,1.4437169638184446,0.20736298690463803,0.89647548307631464,-0.11521394019912325,-1.4402129736240838,0.19148840679919499,-0.60808603487638779,-1.7928431929712882,0.81811002512541664,-0.19159453111485547,0.71308024964964667,1.6582575627133906,-0.2977995161354095,-0.13976873824221839,1.0697134745731169,-1.6526296092052013,-0.5522215441742554,0.15073564391645641,0.57280099751697533,0.6820275434315104,0.57922840898264338,2.0121149219706802,0.65929216806157465,-0.9688016040680647,-0.57819477862661728,1.295498540617761,-0.56545258837407886,1.4803676479987862,0.47236483951593217,1.0241225686423645,-0.68310195942373175,0.92148146756188054,0.11365181692649663,-0.74071187361297419,-0.14998796737661305,-0.091162658988395984,0.42684385300179339,0.13009503575797282,1.9428739303297853,-0.52441570236454071,0.33131864421249446,-1.2534116999190754,0.1480268450414923,-1.5568060994109767,-0.42055413520559781,-0.36228069162191029,-1.6063015094397661,-0.041291313708306909,0.94346017946218519,-1.5829239809131754,1.0971422656694738,0.063618443312251305,-0.13117177660809437,-0.22940373359721344,0.74245777595397422,0.5588498711060359,0.322598825363202,1.0483013150136122,0.26462161772239151,-0.97999106519342416,0.97512156339990408,0.33630354592220446,-1.1232236635069575,0.87119206897733203,0.2477655809054069,0.19844045372891708,0.41806129662167874,-0.25219408022139933,0.048504111714028693,0.5695989988316601,0.037918431894102357,1.8702494653095942,-0.18006450944504643,-1.84957319150113,0.84441937293120206,-1.4819819694299181,0.6590050920832099,0.74348825527072215,-1.1690151852852775,-0.59462992149261751,-1.0616229437534002,0.4425025162418999
-0.74004898140390118,-0.29680391818214291,1.3236204136776275,1.7729361824803911,-0.28587992647409793,0.082482957718255798,0.89422937271836145,1.0778480741705121,1.2077677007565768,-1.165837042885272,1.0104847463413658,0.52411264173308258,-1.4873350349577352,-0.26435232467382164,0.94348755468778878,-1.1045013067166511,1.422862624173501,0.34812411362818252,0.81801560496036985,2.3810636603709989,-0.91897848450558262,0.62193792660920599,0.64953640536686597,0.17749995311870595,0.58603033021333639,0.23343297840274838,0.14100068409701147,-0.40105751688223262,-0.94635449206815725,0.083647920093416428,1.1443244414754246,1.3529362873463719,0.98712917126091482,0.010894374272395849,2.2241861542801993,-0.7971610708984681,1.925341403938529,0.52675438499400096,0.62294503875292784,-0.058551839297429076,-0.49180091986978064,-1.795227473460546,-0.57765445673013283,-1.1274797171052262,-1.1513769841823849,-0.59827429106783137,0.45666552267267968,-0.0058576672604140527,0.87243616858676731,-0.068008675055013068,0.061285028271182887,1.0454753601083338,-0.22965650371746521,-0.98986621422414711,-0.75095359530176642,-1.3948334614991373,0.66918754901515975,-0.15153150945546515,1.5693496823000477,2.1436320962874484,1.4316542888115171,0.44461196404891423,-0.037607231350227442,1.4614885635500767,0.93387802382408347,1.2958219977638339,-0.53031767064178736,0.66142576742986559,0.81468636956261753,0.33512438550076545,0.41639654457999881,1.5545338210744446,-0.72951182139523463,0.56517206720715896,1.3544679243991835,1.1117346740491445,-0.91838844948857334,-1.6558147716285709,0.17192644557943201,0.87477235129522413,-0.73442405599611693,-1.4583567714357091,1.8595302662272108,-1.3800285998945059,1.6089234445078349,-0.073766087607606071,0.21612672923672643,0.43113592524487382,-1.4761632546296541,-0.21176367640041882,-0.97669345756851644,0.65872284224892286,-0.63567782402508133,-0.748208868205538,0.48602925967720378,0.063921162217966246,0.19102407635969215,-0.69180375605826594,0.33433509954137863,-1.2600229222050345,0.899020560282078,0.49072007988881378,-1.258945273862409,-1.6866644187034097,0.2106179281380974,-1.1375828472395535,0.022935522191407747,0.067994224669083739,-1.7329991237186759,0.39969159205176735,-0.38176295933439108,1.0850429084657573,-0.70106367949887494,-0.71692330325540732,-3.0699447606658845,-0.76147168854003744,-0.91714643737819213,0.012534644779323834,0.13279646539268505,0.40229714537320738,-1.5062605431549363,0.82763905813957517,1.3812189350816813,-1.0838318601276786,-0.15027196593524075,0.67098139932166545,-0.27950760166079713,-0.10396849302817324,0.41464140909817943,-0.57980794527449875,0.91297552898520296,0.84053594166398538,1.2781173784576243,0.041286116158811767,-1.289160428561233,0.56955705944309687,0.93052622486526015,-0.3038767026364288,-0.38840396199134658,0.042248060432448144,-1.7991486632373233,-0.8650891927133556,-0.42695253661051941,-0.17136006789790037,-1.8044751973102686,-0.41033268504938092,-0.84459502470788017,0.12717489809403315,0.099504213869161112,-0.80660271554249507,-0.59942999644416928,-0.38257066949513691,0.26550488375993792,-1.349608386891499,-1.5315628121547642,-0.064152053648989751,-0.1852051172678929,-0.74156093527059463,1.342678722233501,-0.16244702087234597,-1.0261875468698618,-0.39987162821248085,-0.13001280160428536,-0.51329272007659643,-0.19581545470746106,-0.48358997098399792,-0.95944021237313237,0.51406938621339215,-1.8466250569200513,1.7417950948701066,0.24532385305362181,0.78926905832034333,1.2437804950863063,-0.59541877179584779,0.70809172261944175,0.1877442053065457,0.49486150480590757,-0.59752302675953251,0.72924168793916933,0.82710129418952927,0.6615820537612771,-0.61656300301434619,1.1758581112831503,-0.90456433570808181,0.61399883471265382,-0.66193299768566083,1.5329693690851298,0.21109100508072917,-0.035715468574068772,-0.46709786827504735,-0.34336646732753856,-0.45139502766315642,0.58763202253500435,1.1670406593858866,1.4753205462498775,1.0876680429851286,-0.4417973718843583,-0.28207723057871542,-0.07523384566062162,-2.2248011886962886,-0.54476443043089828,-2.1150434107467513,0.83176836839615753,-0.80027549084961602,0.91990439122734613,-0.090644504734288492,-0.54059177340748044,0.38262886649295519,-0.42499948042585195,1.5388715165067519,-1.003216324606399,0.019134111393448918,1.117331855265193,0.1207950316200397,0.96348510128389397,-0.64367055596156442,0.86146203985881298,0.96929078512530642,-0.34609940895458674,-0.77743481519104429,-0.099451570702721023,-0.92161818531877493,0.75999000847402376,-0.053151463060233231,-1.5160905093504438,0.74650447082732507,0.58873843142947146,0.38385848550283791,1.6007176686512501,-0.90492325531166373,0.2620497347537743,-0.58595726015021299,-1.8408912717475658,0.78398574140017663,-1.8600115176232952,-1.532773464925109,-1.0414478557276186,1.784783660181801,0.40201589160773243,0.25357472497947708,1.001413026850555,0.92915652563983808,-0.46076188170809096,0.28089966066352667,0.7786492990559295,-1.369201999362861,0.63755749344001089,-0.5393932705501211,0.45413235268872804,0.25817836930619492,0.24614128899199247,-0.38004624920795665,-0.50616042189656496,1.1642548215777149,1.566437920109695,-0.33084752657446675,-0.81404249262776074,0.44252646770937265,0.68728065426002416,-0.46116867368251907,0.72929634120179931,-1.0863355056619997,0.43045819330501595,-0.44332912946739655,0.38396707095160698,-1.3575778712681126,-0.19763409966325984,0.6712962790553676,0.76642634122299391,0.71773452298920415,0.018084617997390244,0.12453030181002775,0.39106948554014931,0.7139846390448521,-1.130207093587295,-0.2732414196863574,-0.88374848969544595,0.84342604146734468,1.555888979794126,1.3683767609933606,-0.65560762419072371,0.77153690905950223,0.66006848015600317,-0.98554491573223146,-0.1330534286414812,-0.50141181257111189,1.4568280989843336,-1.3075735501968226,-0.033974617097595701,-0.92650779435555652,0.75696628755985684,0.5892093291420889,-0.20746495725202693,-0.15134504152805264,0.85757930244754321,0.45602063056128084,-0.24786911105110193,-0.62632559529719467,-0.98236227236852602,-0.44970907784209113,-1.6406937298025008,1.3463178917208685,-0.59333722896977326,-1.9365647857756887,1.6260884116404319,-1.4204151513335312,1.203274230052813,-1.4157890776485911,-1.5366237557716034,0.28091936909933618,-0.69637650113834459,2.0785503533774468,0.34646408206198109,-0.75720527270834681,-0.94707040327611114,-0.38577929171739067,-2.5149750927049204,1.8003626850891206,-0.29977712991538347,0.03824753978838806,-2.5343664319619572,1.4272340108990156,0.81714782883657344,-1.5782082300798117,0.26956494216983995,0.64384102152892231,-1.3909307389971106,0.52228259612604222,-0.31063529898859848,-0.27960262610661696,-0.9452205764485957,-0.32193815149816135,-0.44699188287004604,-0.0037788591812429068,-0.60139002650177553,-0.048701269211363148,0.59088840594200376,0.95242061030134106,-0.087918872921724248,-0.093680107253089701,-0.76537957549460889,-2.1637156030563642,-1.3666219087266067,0.19804944642006897,0.41314647247554509,-0.73668781372166214,-0.64979047771803233,-0.39890723232556213,0.38946056586493033,0.86241413093107433,-1.4973837249980149,0.2655865875752445,-0.21271324336266581,0.90094849574408309,0.37051314678160147,-0.47359413711123455,0.15830909393686848,2.0605207729809778,-0.42968958345992125,0.3859747112151975,-0.5358149401456721,-0.37861371506003544,-1.0749616162078839,-0.7820138706959775,0.087355655568285312,-0.085566783838312149,-0.22333436876476762,0.78169806069416414,0.64461018473650267,-0.40939504830564011,-0.24019959029234292,-0.87421715650751786,-0.81324482657206376,1.0580805292285438,-0.097835916303203693,0.29821017166190572,-0.74479658459943887,1.0202417002025728,0.25153452662234549,-0.26461998434923717,0.48027123111197989,0.15096707143347407,0.10935576755493184,-0.75882147142334755,1.0945458467588769,-0.90156040065658072,-2.0554496639452235,-0.27761145002146875,0.77228094168838801,0.38667426778006397,-0.56031281274652989,-0.018639341464562198,1.8736501671664758,-0.45258459803134821,-0.24097657962126615,-2.631910773273487,-0.82429191395871759,-0.15006358180549575,-0.53049636104537379,-1.9233479333763894,-0.71911740703699967,1.3194596421782809,0.26387651159232595,5.1957236735395756e-05,0.52175619002824059,-0.58274605562577841,-2.0943540953918824,2.0650569901417444,1.423701108639591,-0.7638814593126988,-2.5442299382277538,0.98151279572124783,0.32256687900261671,-0.93931844122110741,1.5471272986634947,-0.7137153425167313,-0.30835709764768826,0.78451158722342085,-0.18196836909421016,0.48688336506344826,0.91887398763340977,-1.1484624876365372,-0.038891551498268818,-2.0250582081652455,-1.7933107643049722,0.15635521586628068,0.10371099111454561,-0.72226138206508195,-0.80890766561627259,-1.6545633468946124,0.12919612632108457,-0.97648635576242548,-1.9010561249155002,0.036431251464787762,-0.4518037499537057,1.1482210701991573,-0.047776323931561809,-1.3983087902234386,0.69777566310544903,1.4033658494392107,0.0032398455568798455,0.57708648015375597,-0.61337063595655839,-1.5443939272434131,0.28462276386743746,0.57687019914471138,-1.2630357954981795,0.76918475620930582,-0.60813882139560982,0.4730465618744526,0.81454055008590187,-1.2251029610156017,-0.35761688462892649,-1.5031577331197317,0.22002193501593773,-0.1287439827803282,-0.36608328232247728,-0.8472090702552082,0.32378128720201244,-0.081242953972636922,0.25939923873447251,-1.1513096673376322,0.41899149103212946,0.64198213903697776,0.86654700276521002,1.3111905843081242,-0.10323085226270243,-0.19238935975097468,1.4302470535554204,0.94221896787567139,0.75870525277305811,0.20608329513324891,-0.63066434599427024,-0.71447361336403603,-1.944764051221737,1.121981217236411,-0.48243161321039307,-0.74905516425173491,0.12677952547422597,-0.46470832437201415,-0.74007771350852658,0.7935849883283187,0.78041236892203025,-1.2642718022413655,-0.31477249053535356,-1.261301464394907,-1.8788174392593229,2.4221100080769222,0.19921202426080198,0.95588877475149658,1.6083316858693786,-0.78494480208511308,-1.2629149187323057,1.4941691533981623,2.0989188587660332,-1.1776658501738118,1.4983915672472723,-0.16770815728826013,0.65628739423686921,0.20216733209737431
