1.2251542619751439,-0.09191816226751709,-0.93108959134678204,0.34396591875796445,-0.080215387246551223,0.15491196493146164,-0.076727610072981761,-0.56935362927363897,-0.16425003369636959,-1.4140676921788138,-0.17227588634466243,2.7351696056954014,0.057555469443897625,-0.36108809056314123,-0.32647184543995322,0.50245269850872532,-1.6374879878143662,-0.8461877322996485,1.9395896255005176,-0.61978002338547089,-0.094930446929774759,-0.77893415165216628,-0.93500954811321568,-0.40448711055999165,1.0635885809245162,0.3837933676311881,0.86927038270534407,2.1146431736322699,0.41581754346825417,-0.83751545338506472,-2.3939063899251209,0.83182191007251582,0.34737814233144365,-0.66752480643558676,0.71802863060613098,-0.24144826465275529,-0.97096587957994074,0.26065987283622999,-1.7274250880045308,-0.79099932640002069,0.95637708873541472,-0.88376841028892583,-0.26389851645294576,-0.10438631337026577,-2.2041705123312223,-0.44722714486526388,-0.69927219577090394,2.2832175359260565,0.71700237897055796,-0.38433220679881841,-0.72140969639684593,0.52502179011706918,-0.31537345885963336,0.38988830624449844,1.0590452631220078,0.42178895976469621,-3.3951671241320001,-0.13409400472155344,-2.79186702461327,-0.74640036529289222,2.5975160399395252,1.5859608022194021,1.7537780126168534,-1.839544617719759,-0.10867470118102429,0.63645225401958172,0.15685295940162328,-0.25595344801276265,0.64928092310961272,-0.34895782812176851,0.94156999512143214,0.10902949812040068,-0.76859948991533888,-0.15416251365176009,-2.2609370230053667,-0.065788525023541974,0.075752916949592145,0.5564027966045958,2.9874674982309943,-1.0413216929235778,-0.989262880212745,0.29725330871445466,0.15513956021063477,0.079799318162043359,0.54824113731812252,1.0234684515426309,-0.94222879586055075,1.1774946887302205,0.83991301303974109,-0.33837285287879815,-0.95770011108467701,-0.19898737449617238,-1.2056152733356378,-0.19158585689852417,0.66529077387081581,0.33188049783154272,1.6567848209835609,-1.2960358885748335,0.94983426013669348,-0.80714798300085377,-0.87565175616111279,0.70412064246221662,0.98323149635798335,-0.53952386863418234,-0.86971534582462684,0.046486300958154189,-1.0937912024590006,-0.038661929868859149,-0.17639138241435606,0.90665866796944572,0.52989698678125119,-0.94458076639080635,0.81902160526041223,-0.52184399154520211,-0.81157539247766297,-0.1811373618675623,1.1538563016952705,0.18571833339260682,0.032064427983461798,-0.70191167296442736,0.69489478820485873,0.52773613086411786,0.4218253002216692,1.4739993946030585,-0.77509270143448772,0.90021625434299202,-1.0852553218079433,-1.3165990541454831,-1.6424932717333898,0.65259590520883548,1.4928419245976321,-1.1377890416208702,0.14975950194893992,1.5770266819715859,0.07530775142920243,0.20859758918527482,0.44924752411067181,0.12244299124490844,-0.087406316744701548,1.5896185582970743,-0.54212572016339766,-1.4291001836055806,-0.63853692381647842,1.2341674684487332,-0.87394555047767597,1.7400659213982588,1.4417129026483835,0.54682729203366587,0.024202009320713442,0.43741221055411994,-0.74772566212536884,-0.066714454155445871,0.37070732090001024,0.48609758714062895,-1.4099772371210761,0.30579001301358089,-0.21678489935883369,-1.4356007524665424,0.35765251780246288,1.7366642976819364,0.83991608408604856,1.7199940888014573,-1.2343729668042362,-0.71218130909679256,-0.64692294007765072,-0.58353644541423588,0.29188418011060352,-0.95037992995567855,0.86914559886808951,0.333746093396183,1.811637389997653,1.5848338573746994,-0.86317771412690791,1.2613450583714554,-0.50402496943088204,1.2479194523388151,0.37882386683947111,0.36643953820201619,0.1072433227613545,0.0047856097047797421,-0.13172503660561202,-0.69869632948299742,0.16804432182888146,-0.42200014574638517,-0.53450219011367095,-1.6138616731141906,0.056145525126591919,-1.2008037101521889,0.40508471884183128,1.3470434548483023,0.56638661823805503,-1.1709955263126199,-0.56437987798650358,-0.37613271385203056,-0.59122933394820087,-0.76615504238028009,0.074144248684634803,0.24193160492849766,0.26301351474871321,-0.58287877236044283,-1.0597822892423678,-0.81665846861565738,-1.8934902842135812,0.35405878705332161,-1.2150123295240314,1.6993612850855091,-0.66647200683715191,-1.0443475453411311,0.19663500523797914,-1.1907236807111459,-0.52114372329762326,-0.37870209958366546,-0.32284069037661628,-0.034035067130353737,1.2115938038940788,0.34489060187504333,1.6706132812885037,0.49129115947967555,0.15593897016537953,-1.3283957447795984,-1.2483740446553038,0.72358853121985689,2.1421052306107033,-0.66628572270719155,0.23543146476932234,-0.74911135971775134,-0.36712138079412909,-1.414079637682635,0.93527244971178369,0.10863439520322771,-0.189776423562036,-0.70020356029562392,1.7139158409354098,1.0778934926543955,-1.7193211162238449,-0.59600971050368268,0.2524614473640559,-0.24632522587180339,-0.63040315438447903,1.0870959850887341,0.77924747085976853,-1.0685300540606484,-0.82936405883909725,-1.400014288146328,-1.3084932127424467,0.96705253068426567,0.44836751640083394,-1.1849277200306934,1.8923949847360078,-1.0819299339282535,1.5262962087433238,-0.0895416974461309,-0.74589613599673787,0.60156161486008575,-0.86126715185559632,0.045314236176088818,-0.5570682682448288,-0.27528559306105871,0.95348074687975182,0.6011414240292714,-0.19293979765181127,0.0010250050545804049,-0.92234090756322651,-0.67777393668423436,0.13684357314073586,-1.7384368441207101,1.2361961283672596,1.4713786759876879,-0.70431374341418251,0.62779052183652173,-0.72220916815721847,-0.84644749648021533,0.82351396102498997,-1.4036209771089581,-0.083156961542468613,-2.1839512385256215,-2.3078927575242965,1.5137197401531317,-2.9934817387957602,0.052471995733414434,1.1191184969974171,2.2303959714368351,1.1645166380597631,1.764949366577915,1.0758910947148772,1.4009388291641314,0.30450504735644363,0.47232532242276459,0.66189622936453618,-0.80517661968925236,-2.3015758678190061,0.31722796508072482,-0.57198089953375097,1.0995996903905987,0.65124976043850802,1.8829250698047364,0.054974115971678582,0.44022128633671209,1.54745380825693,0.22989730668256292,-0.83785014924156709,-0.98043506490886634,-0.17580526100475646,-0.72828347478551392,0.73463330835550389,0.42097082774161571,0.75417661678389525,-0.40439220962626027,2.8923157086703091,0.18076750718626555,-0.37749789030314823,-0.76092656254595858,0.39922844120520357,0.46313947613166745,-0.71840852282218737,-1.4093066414636273,1.2333854247989764,1.9239046031961147,1.0562398091019225,0.40314219051265859,-1.3744568626127485,-0.72216614501347043,-0.5021478300429254,-1.7801889173905339,0.89257745181573533,-0.85734056401668124,-0.87052434394622491,-0.99041531970974084,0.20989073299184743,0.62752116454364093,-0.15736889086304148,-0.25482046929351004,0.8227447434418772,0.87370404943335855,-0.59304097595519534,0.12665740005086357,-0.12256163265404356,-1.3780830803839403,-1.6013528433508732,3.0283643774150315,0.48268275739195304,0.13759820838856471,-1.0775056131874308,-0.32267179757681813,0.53987898038325921,-1.2747742096224715,0.92874079828652611,-0.15060835110494106,0.60642128693485919,0.64335066745975411,-1.3682879528445129,0.12733568872670875,0.85754309253775174,-0.96945766298324232,-0.71484599859976572,-0.4790456184680682,1.9437397065619713,0.23716292170616446,-0.4699841127949646,-0.038495341315612948,1.7885899028766545,-1.3781119444315166,1.1239206862225699,0.60983573516213474,-0.15991796044514306,-1.4620299644838932,-1.089901048928281,0.71921623495386022,0.00084167075619111774,-2.6422552349635207,1.0715884841643286,-0.04015574251660313,0.23302038580335876,1.5960814621242658,-1.3527101568138691,1.7712819402791291,2.1262498654480679,2.1768769119308233,-1.0889806031321676,0.85813418793858143,2.0690184932500495,0.21441157244217565,-0.42315455185316148,0.71059919028161744,-0.97805681167088954,-0.65731302790881851,-0.10537504875727917,0.002198087751039828,0.35767316321471682,-2.4324902868113383,0.17921770536790485,1.1635870215977957,0.2675007607932679,0.032483750461611859,0.58286726705474279,-1.1911579248159196,-1.7289729840234558,-0.12480241278645046,1.96634283289125,0.094029296789841607,1.7265089035756047,1.6013259183464006,-2.3185672429407838,0.9553041635493611,0.31975079728272343,1.3885957034320475,-0.041189064443196262,0.14091987061830269,-1.3148611195341171,1.0734608139293118,0.50598636413808529,1.089926025123104,-0.71369534697532755,-1.0859804647411795,0.6248308240035938,-1.7022945426312073,1.0191271833860434,1.7302282564055109,0.03683437979861711,-0.87770861388845767,-0.8613956024225089,0.044418486664960885,-0.1543564187715222,-0.75302487796793882,-1.4178305605104171,-0.019357212106261637,-0.19848949656525838,-1.3242143732827532,-0.27782950765385606,-0.51986086675464749,-1.017601080791412,-0.62389052824548252,-0.86994801361353846,0.068204370616275448,0.052278811455684186,0.066707627441491307,-0.62118223310341369,-0.73464915778432949,-0.9108509748024306,-0.17597969926573503,-0.11755740829306738,-0.80275613103678856,-0.26788817243564472,-0.70893603929479321,0.043456156708093142,0.22367243760006703,0.2631672253176166,-0.88744845803325534,-0.75442432767475498,2.7266110206711982,0.39621382079034101,-1.473704270291218,1.2004521836519131,0.15698680935735373,0.63441895280206551,0.8430928605503375,-0.34107544462997824,-0.10597005923786042,1.4161581244002936,-0.47315909223617431,0.87953072568717239,0.82291484569392459,-0.046573432785525157,0.10599742001549206,-0.49808909648497957,-1.4345202147857934,0.87465496405367271,-0.33518531926772011,-0.29887846506544513,-0.44337240625222302,-0.75257398535852749,-1.5193968925079122,0.70493251421836012,-1.6912277628092665,1.5972145153771011,0.42918911967534162,-0.17243764105133616,1.2020378700817556,0.54343553880754736,1.2529794636220255,0.10709465190026356,-0.078924684556013813,0.5189521533127549,0.15579732047982406,0.63495996903502794,1.7082634491690853,-1.2670717403366654,0.4280556289912032,-1.267551033947385,-0.21550599062901329,-0.097615374098031907,1.84325314325487,0.014962522592883332,1.0486058304274186,-0.50962557572425071,-0.43018904681979653,0.017352004794269356,-0.62136565541377242,-0.43847430462029208,-0.82459780248737313,0.50743873310228316,-0.5298272934878594,-0.46572148934840529,0.76353411522998071,0.61822321985493534,0.80420028834793267,-0.79627670385704963,-0.87790073612679331,0.92881502400812532,-0.70581226457273749,0.61460509996090606,-0.38072869631114437,-0.34475332233538025,-0.033571483735429765,-0.13954475043589162,1.5201377075299569,0.26402675211707377,-0.78913909776411484,1.2153297989286169,-1.2495589606769801,0.035067187699406789,0.46663568792968835,1.4786202533946187,0.96456859923381244,0.28356271629903174,2.1130320039363966,-0.60243870652677489,-0.76454116837140851,-0.3226571239726852,-1.1415999710834785,-0.56633385463382846,0.85235290510191242,-1.1377284776161325,-0.62407562424331742,-1.3515128024152765,0.47579475679555011,0.04540433997609844,-1.2235243461284793,0.6320429313206638,1.3406066339940679,0.45606576388769499,-1.3402411664885048,0.10655279951697572,-1.496082195915337,-1.1297457804863531,0.57840650421394191,0.37118095993515049,-0.86474327156247088,-0.71737084183260469,0.29089564530213902,0.9302423680260703,-0.52352480784584265,0.47787504892263777,-0.85377432354397131,-0.11098769057405405,-0.42753617115068826,1.1121606073477996,-0.66535609491968606,-0.19397557529711856,-1.3242116408004458,0.10496474953019984,-0.99691105664518431,-0.62636765848012999,-0.28959353785519748,-0.23643018490310611,-1.1358312894012788,0.43241245612503665,-0.10909354285191639,0.041374140273823239,0.1388703225667072,-1.9831148297788266,-0.21433525453253738,0.096538204701125008,1.9589742116663185,-2.3552786716078158,0.54711239297830161,-0.99720508852374723,-0.56662262853618905,-0.41001997197300882,0.43956401991708266,-0.85033958506166851,-0.19025396796129598,0.81826051724564763,-0.082986673994051643,0.40997355300014515,1.1609398428660092,-0.07917423684289579,2.3835244218698164,0.37757689185466936,-0.47716667015268688,-0.50433183192054665,-0.65441408264099865,-1.837532840079569,-0.61492778430222506,-0.88687325145080143,0.68807754234991669,-0.81034016269153697,0.4434302017294493,1.2689994712385928,0.64577466324621846,-0.2470804476648065,-0.2369018379162694,0.10097454907139823,0.5246124811947549,0.24309354896362131,1.7096733239233237,-2.0479929747391381,1.4563274976216016,-1.1465479048737,0.037062462237103459,-0.41918287009961946,1.5671840421481802,0.66077777793654213,0.35012360978375456,1.5875679979246005,0.53291406155925147,-1.8861185924850263,1.1008467441897987,0.41692399897197924,0.94319726750267263,0.63870430634251318,0.86253128931150058,-0.46915082110521272,-0.35109398833104533,-0.32756538681527625,-3.592802110237785,-2.3207804757568478,-0.03527287174833818,-0.88224374831538055,0.73459443592562024,2.2813418165533985,-1.4337364223672244,-0.64737984192383868,0.79003281914619528,-0.488695313888798,-0.70857569456014258,-1.8227383144697102,0.37649175589770734,-0.95715400916289572,-1.060299857839931,-1.2764729457128001,0.58206992273310831,-0.82365094434288777,-1.0476186502271139,-0.64066680934710818,0.78469947996771827,-0.17774284030251239,0.22666306663817476,0.89484814453779338,1.4688696377462527,-0.74099597356046309,0.24351888471513006,0.34843729247052641,1.2670215884592353,0.4317904076639264,-0.23007962882321495,0.11924560695175555,-0.30443304431439605,1.036169121852762,-0.83442706432814184,0.19204773997133032,0.52798701139747251,-1.8445896328384919,-0.93387302289234719,0.78172786308190001,0.36869091834358286,-0.5221225551879094,-1.1926934650429142,-0.72610576796584714,-1.2558435234130838,-0.62602317314196432,-1.2238039721128,1.4655866590059052,-0.36655124944984047,0.20818266379233949,-0.38404486849792818,-1.7062941337958173,0.26605539171796105,-0.11497686870389252,-0.88359370828789419,-0.10396587540900851,-1.2161344210518168,-0.5440647686148723,-0.31563783697581876,0.36819655634189785,-0.79476631087028538,0.77238248575819812,-0.22282943607484476,-0.68449066064409925,1.2997196136815308,-0.18305863524856039,0.45251622758343729,-1.4244574398659222,-0.93840909099749048,1.1015022899901354,-0.10047180816396289,0.23464893862595163,-0.64076222162430263,0.18952750585356287,0.74405507809006777,0.43646158385379769,-0.028239259082151733,0.1969793592559983,0.51344575903087497,1.4030652689096497,1.0859081165615896,-0.92981601452617924,-0.25858387692646567,0.22417673809479602,0.38302566924790249,0.35002782431256241,1.0201202577753756,0.7448978942034562,0.66027102611925337,0.7424634425382648,0.079966693077414802,-1.1496082998449768,0.93954183399145341,-0.74741974991540239,-0.33944746188114377,0.31782694507861053,0.10064521612687087,-0.37403122117270138,-0.18848939752282107,0.16250142703935083,-0.33656252163061451,-0.66802880978694157,-0.72739933872960694,0.71923371199061059,0.51871781013380436,1.3950526394077774,0.85042995744008021,0.36382459529433697,1.2553188452604345,0.12556482739529776,0.69222474905302955,0.10995223190554161,0.9283624857614976,-2.8740140639004363,-0.79169220395601214,-0.51864689604845426,0.10157977461288351,0.98038680659271193,1.5337494546379653,-0.89772408221942834,-1.1029652718757765,-0.24616194337970534,-0.88813459625147584,-1.4166085951167717,-0.67427536121256326,0.88196604215353314,0.78856744595243022,-0.93185559977632937,0.65243734600927961,0.55024455787982474,-0.33715592366882247,0.81053679886445651,1.5000987283411504,0.090849961088675213,-1.0168884546600934,0.88339211360842174,-0.18833031837557307,0.45394328341312529,2.6914665214502294,-0.19989366333396744,-0.12824089539702993,0.0039256335168914528,0.049641403187778294,-0.3043437907582987,0.96995195898717035,-1.4111796515741906,0.53831229708059203,-0.65515657317054898,-1.1692960990154075,-0.68693401613413829,-0.50218728667727475,0.20855429029136188,0.79542415248319998,-0.069511024089058834,-1.2020748794280027,0.77077349414931207,0.52312668649254579,0.45095543948722794,1.4004514829013432,0.61116614687369242,0.018744391229148664,1.2015791667229385,0.19081496408282048,-1.0643757043492175,1.3107497938037065,-0.60630712615306226,0.028783012435640524,-0.7131083778042836,-0.80521044877709747,-0.35685119971528584,-0.49633749006397399,0.48137356333698728,0.22574149839477434,-1.1797058594366321,-0.45451596712385256,0.28217853600558757,0.34952644339639083,0.66392394022342716,0.42143697788146317,-1.0751335769200885,-1.6556497999889146,0.81292828920287152,-1.4262847035537245,-0.85625019517331635,0.22002425923761978,-0.71388054967649472,1.0884580949043707,0.16242549870476419,-1.9974551190389396,-0.37529490747747707,-0.67207119935511006,0.84224095548877342,1.3307090389253113,-0.48242472437412248,-0.71945973462711488,-0.23887504134681858,-0.62311246150445831,0.88977881901583766,-0.54439366867285299,-0.071810204107775569,2.2801021071957877,1.0129942190319816,-0.31578293187405998,0.62493254358463446,0.30834141283647837,-1.4982517079977908,-2.0175283932899997,-0.12365138041477497,-0.19340625467264805,1.2436139137431654,1.0676311710354898,0.12612281435675798,-0.037434125778979623,-1.1814604245038995,-0.18209564906511447,-0.26288115242562743,-0.65698637169447427,-1.0479835674157332,0.026757594100508663,-0.19911899751596637,1.3782921316670418,0.38469793145150299,-1.783374066107811,0.15333797138231833,1.8227998357637272,-0.60303088898323065,-0.16597485429205283,1.0879336991135755,-1.212324689057213,1.1606538421824373,1.1925365245027155,-1.7766377065741454,-1.2500454739466631,0.51644853384535183,0.1050185663330407,-1.0877383171580679,-0.90630649769420057,0.57303674270442073,-0.68114096638374377,-0.568086656596406,0.035374773223133454,1.3844514549399125,-0.78387458506430518,-0.26509584879389558,1.7895312873545934,0.86207801876633161,0.70343546390098333,-0.10511366937161576,-0.77547889815803384,1.0249521779066906,0.82859493327286293,-0.98408200604397078,0.27400538112531564,1.5594334072574021,0.57101095234129529,-0.2032202588904804,-0.12379013320008292,-1.116497834749272,2.0849887161595912,0.70293321521572871,-0.93609161442207089,-0.48334587626359049,0.49427312691838332,-0.62388136238849645,-0.78799678370815485,-0.181727573175128,-2.9481008594122766,0.36391018234450723,-0.76660055696872387,-0.13914058700751944,1.3136517415985902,2.1623148610296599,0.18169572722636945,1.3215414879303871,2.0939282494744154,-0.65313720693909993,0.7405013376075108,-1.7280322241098267,-1.9425661578608551,-0.099912716926414444,-0.54545298172499168,-1.3795190365985424,-0.095162085758312157,-0.44791508059350776,-0.21566700491684684,-1.6049518474148845,-1.1436991990875038,-0.88460132917858991,-1.0069278478540753,-2.3754536072653134,0.60293078191727423,0.070112359966366902,0.13829255410550254,-1.5338042384964152,-0.30943454091818057,-1.1886202580165204,0.11529871041202688,-2.0342756825914989,0.69453808657011018,0.12707849763806753,1.3148093444404714,-0.92134756638890991,-1.1777937554642983,-1.6745832341929348,0.63264018176139081,-0.44294230304257848,0.31236318432685639,0.9836505688084678,-0.964987686954343,-0.3662137885029722,0.77280139955632698,0.34005964152581791,-0.075852544177373943,-0.32571836903253271,1.9932301365726763,0.11823682604615209,-0.49367295284735391,-0.74732084926971931,-1.2931906447039359,0.0064430676132424466,0.78775953511656982,0.45151768038865198,-0.27735908421892275,0.34730561365381646,1.9722933197778367,-0.61930682654988156,1.1036132040902353,-1.0916263851183583,0.48128384438662181,-0.30707142912683627,-0.8110482135106446,0.0065737217170272382,0.29347851082995607,0.35233273564032119,0.061507871844888241,1.5403713368294367,0.19559702488728287,-1.361917830248891,0.3878535386376411,1.654265788715102,2.5841244700797166,1.2776006168865708,-0.54342042826856796,1.2326438914131113,0.79133121661498784,0.64138800487677339,-0.79025245213436468,0.00076108107938185085,0.3735760494934991,1.3056494873894233,-1.4348649188164386,0.13182511176189468,0.39899728711757854,0.48785895544747243,0.49584162876311227,-0.92472794277963366,-1.3775711640574564,-0.73435540908181907,1.1582150994746279,-0.16886840221287122,0.5361744794364518,-0.5565876879865469,-0.42770233984085043,0.93402706267206725,0.3178365099536834,1.0176910761629441,-2.2253105253971421,1.1666068602620518,0.18331934233454941,0.10157062494985507,0.14401049055529783,1.3710105446555843,1.4580212885320221,0.16727190573700323,0.80296386976675094,-0.53838916117485081,-1.4895916665437521,-0.36915879657819967,0.030535059922851698,-1.1442323497463813,0.040408557423755362,1.098707924739512,-0.43500353881858311,0.65327330596335054,1.2150859325688077,-2.9916975584391583,-0.01429359487696189,0.37876310960300935,0.27421249016118909,0.40903390505954718,-1.8369759812947313,1.6966845712649943,1.265894090392182,0.32424417590797378,-0.71290724006245887,-1.3915032348277621,0.55657350697445696,-1.2201925360538148,-0.27345735552396172,0.66706221236113239,0.24234298457136513,-1.6474378886456131,-0.22897788226632101,-0.89498775198034364,1.841528516805756,-0.81690043424886649,-0.59318556798641753,0.34345629469757055,-0.43662574511513202,1.4088819987847021,-0.18588120165979524,-1.5996764211650363,-0.052009435485337166,-1.5608674660003146,0.35361701443369037,0.89831165906663935,0.5007537959425451,0.69844821825336656,-2.4521700306827396,0.77650530809168594,0.25635153382026005,-2.2517331182396281,-1.3673298734593815,-2.6300165968208216,0.41589139988235568,0.53700025253311623,-1.9578816113244524,1.3855168988733551,0.56671952794814007,0.13044729374943079,0.17032166091218914,-1.0998566743773921,0.63933127878957663,-0.42260054999879421,0.28569773477051325,0.41371448871704625,-2.3496111622671076,-0.52110969619790226,0.17333118637388978,-0.27404521132744575,-0.47401761677755522,-0.11621031612686589,-0.93894666562540885,0.032385647565663769,1.243726087679736,-0.52971724500743389,1.0694853400739139,0.97094178634637007,-0.046042873422554718,0.74317668132847214,2.2389446043430983,-0.83385962514765766,0.68825987422357027,-0.91764351888077522,0.090089853682254292,0.89287418868140456,0.78228349615778936,1.1710106989486153,0.60166483195417575,-0.057704429367430692,-0.29857089839003942,0.23338870366399395,0.44595180027045228,0.93522280373765532,-1.6601512103086065,-0.32834799028528328,-0.73973557864871387,0.19470039323569918,0.32218043669350921,-1.0917110794767404,2.0051762007485237,-0.60976635273554436,1.5840031345863947,0.8421595799155428,0.83137130718093688,0.88633398117952233,-0.26146766020856865,-0.29761497132734888,-0.37034565118922119,0.94173300109538116,0.58106329572849691,0.43740007187590535,1.2783501821326075,0.77921313291235395,-0.11696364298998214,0.86064953429718605,0.3966551918688131,0.80343107193806929,-0.75457712319880998,0.23335333450930015,0.075699506972685349,0.88578697878202695,1.3357699102225906,-1.29605585155359,-0.3750942485035974,-0.7082015971631852,-0.31559162577463762,1.0481869635353729,0.31702238641951785,-1.0661020145692131,0.44720419850411031,0.14224099162770201,1.6003042122625659,-0.76406801511493705,-1.7116972291508958,-1.2179920430068654,0.03536628843708698,1.8791766814672004,-0.24915074030231726,1.0635583371249813,0.085547400371714127,-2.8417981493123765,0.42584768986926014,0.47244704112396491,0.65186872177525357,-1.4134086343376264,-0.65354764901134887,0.23012717287698936,0.22680292914420494,1.0400791127155584,-0.12943838948225511,-1.1723289949003226,-1.5483532537393712,1.5727195390079047,-0.48558043126487915,1.7962913453016349,-0.071806555479997411,-0.0031097476630122696,0.71395175273701728,0.044953860690846566,-0.71316148760409559,0.89496896621323019,1.4601727689991497,0.28491344277916708,1.3207755272735373,1.4755328276946145,-1.0381907315922803,-0.29964306483651981,0.86742384507481418,-0.81561474431532432,-0.95851957953991929,1.0504749894202654,-0.76669627130045659,0.71901699124983387,-0.38049272678407253,-0.28092801031308595,0.94482549890762246,1.5303678441851449,1.2506786144298976,-1.1350475619405349,3.0342253841883058,0.5358615647663949,-2.0928973703221914,-0.43739383978642066,0.094444075834834482,-0.60834163163391985,0.163465679579754,-0.057486110441816007,-1.5989903956429248,1.0366601375061435,0.44087063354932676,1.3438492160030981,1.8962302605949577,0.66525808050180446,-0.16344749878486456,0.83032090257463143,1.0715894484885948,-0.50135615538535905,-0.19926485531859731,-2.6542879796192689,-0.48525691814252075,0.61151765632686039,0.88864897374203877,0.57916243954097713,0.43089875597102201,0.99951099301662949,-0.15918315960619975,0.17484034346209607,-1.3844514640288164,-0.32712013598427886,-0.15395847532173187,-0.56190260655026758,-1.0816323937734664,0.43885226269418226,0.97558001053752996,-0.59421875914297551,-2.5922626457910423,-1.935169974807931,0.70965924947478298,0.084444530073365609,-0.28411861222852497,0.40250584822601698,-0.050994774719856625,-2.4717166248965894,-1.3576754212785711,1.1622215925013231,0.5136168496882747,1.2325905063420588,-1.3257239705451782,0.96130656067414655,-1.0192442931173209,0.83931905523507089,-0.24851965098453205,-1.348551116852382,0.18604815693283866,0.58628246855444044,-1.276622589744991,0.93061168649798598,-0.60712253440525255,0.99244406439508515,0.31504558574201663,0.77294422598280488,-0.78766163340375894,-2.5860178439106427,-2.6189838514857118,0.18786522221567972,-0.98032293464807641,0.21155541188575908,-0.027011664827883846,-0.12666966317370426,-0.7449324167201421,0.11684810437577277,0.23532002756475487,-1.343952050559061,-0.67173022792950632,0.81645676396161648,0.043457684940397208,-0.042485614985144513,1.0202342214251647,0.72243677711631527,-0.45832916309510841,-0.053465567042629787,0.20939585288431997,-0.80353467172403448,-0.35575293391983309,-0.2693799561559439,-0.0054993124470210462,1.117212957820453,1.512954398430457,-1.0805073380097403,-0.80119273315281692,-0.61310993922808554,-1.7739136039981616,-2.0628507273807015,-0.21482547172922156,-0.34841828199017461,0.78920233590495326,1.3811327596624654,2.3907461660107518,-0.63686443106932322,-1.162887829400963,3.015892460262934,-0.70345575024616469,1.1542259894638409,-0.075805041058233047,-0.45784579145823007,1.0426796354584547,-2.9395801629146461,-2.4182844222172135,1.0971710029958137,0.91950191046291929,-0.15221641651778955,0.55741015740350719,0.55135944303595752,-1.0678285413926631,0.21419034825873465,-0.17289799380895368,1.6200611442563375,-2.4935446458712143,-0.87343605924144774,-0.23254559986938989,-0.72873995072259845,0.29559829187112746,-0.040887854105024816,2.0320419657872617,-1.3955135305026996,-0.46369280572101174,0.23349306288777191,1.0220982785999406,0.33589896245459666,1.0583792189733403,1.1216271786846206,-0.29078758453774084,0.36041583604603311,-2.5150181322699723,-1.2353426249769086,-0.18057486442073231,1.3169388316167097,0.52791173030958516,0.53063923661880441,-0.37232458601425611,-1.8451005579034427,1.5037989773371285,0.27872772766937731,0.52792800249825145,-0.81083719359571271,1.4030851882414452,0.13266949867930991,-0.68130868954343637,-0.38886260573876424,0.34770131597240467,0.54435246691220096,-0.42285161699287854,1.4233638548245033,1.8514906252204459,-0.97007106286306366,-0.97047369160973918,-0.72740666349926419,1.2233773666932934,0.064356710638815831,0.96048610010316282,-1.3158772219426751,2.1485037517578109,-0.33645607171598868,-0.54231887853921024,-0.22759441159864366,-1.0739504956842885,0.25421914021909192,0.39100653020504422,0.31161187460688844,-1.7244698619131005,0.65583712055216792,1.01800015737743,1.1604827459885054,1.2454857947123503,-0.2767327962179576,1.1216852250605076,-0.95568435532607954,-0.28825205335705029,-0.10427286981642837,0.10611734723232141,-0.53579732188135343,-0.3306037754309667,1.7298540378783673,-0.18390342380328542,-1.389275160754458,0.12642418187776064,0.68672932635384243,1.1317183705557494,0.36254446822672781,-0.36288066053472701,-0.45911858653031157,-1.6156243207701093,1.1502341625622163,0.80536142025124613,1.584788052846378,0.0049350304233895317,0.64881013229614903,0.29725110697405749,1.2202680505682946,0.066604372335523104,-0.13861076137576531,-0.05269747610174251,-0.96069715530267485,0.39446154796439098,2.049170518441898,0.21703020135915499,1.6175410914874107,-0.22286676643495501,-1.7951253878075561,0.056620065360009471,0.49504175182515442,0.41360731383366528,0.057203030807160146,0.55890756735480651,-0.96581345319695178,-0.0065502125935809116,0.12888214054910047,-1.3179670060777142,0.57454535390016948,1.3165249973311917,-1.4312648333016855,0.46287080625802912,1.9268507109501802,1.1310084544972183,-0.3901058875485523,-0.031332238613566099,-0.44298850496864256,-1.6006327363923794,0.86513889951417422,0.013951101887449725,-0.41301675963172235,-0.12637456459035057,-1.9959107073263838,0.40584382475816055,-2.4600291908872252,0.40974637397949548,-0.80512859111089408,0.086842734050979919,-0.10642043213490865,1.1383142434102824,0.8313316377478952,1.2413170924704897,-1.0748097220166573,-0.094085479434660141,-0.94696218852925784,1.6942071453823684,-1.2174583370804959,1.5528540363638728,0.28497508358196788,-2.0029352881062406,1.6100819388132905,1.1653948714788775,0.55936048665385751,-1.5292196519200691,-1.6033741129837074,-0.56430662391413233,-0.87021820344067458,0.31802416423889307,-0.92094526764329532,0.072611073716823821,-0.49601060173616857,0.97336405309905882,1.2003702800333462,-2.506009108469943,1.0598928039182021,-0.45503304868885414,0.69801133049418329,0.32417210281501785,0.99819490525614851,-0.52484536718663866,-0.68580191418308423,-0.18869249904455734,-1.0292740681535095,-0.78243205494050205,-0.7051810634272152,0.14114242880923744,-0.45403191068696108,0.0080029031412936005,0.23869130099759622,-0.80533346643637516,1.553483572662113,1.9123824038975568,-1.1227361798820956,0.027672572443171277,0.042967296367601292,0.0028041089019199212,-0.98734103632904247,0.97469603031603858,-0.39537926154343506,-0.54786689984573855,-0.95556933396830013,0.046508123217305318,0.66579937616043139,-0.18499034538439604,1.1796032641005192,0.14015996481789686,0.020792513541491024,0.14506506097307612,-0.38571675620918172,-1.2755313164734354,0.16188691751005721,-1.7770745857075902,1.2732786196467842,0.23826994989651423,0.23755848914504885,1.543523300131761,0.33641768362258656,1.9088926468785818,-0.77340671675801587,0.062723780527697365,-0.50469578006962346,0.89608693677461193,1.1990072737889752,0.21734133695582281,1.4684789115933201,-1.575708309003979,-0.22324185579205036,1.4695108814432807,1.4673666133936034,2.4665156019884948,-0.87005472844892362,-1.1014920263508208,-0.34189615479553687,0.80591347085254228,0.74921541438420935,-1.1680098106112127,0.18716653747842329,1.0158383964337634,0.2834514570943158,-1.8868373752389291,0.63105739762997037,-0.71986832475272566,-0.060614178830518783,-1.2182847910644201,1.9135033136553543,2.1810552234578036,-1.7404344426231799,1.0663605034824455,-2.2121915827342407,0.05957505002980145,-0.60173168088352413,0.27613541825452503,-0.79040510032199052,0.89850716473260395,-0.70157765043249687,-0.69949487461221438,0.42229827391330665,-0.65835573857629681,-1.4010217002810272,0.37452765587285369,0.66951585640116973,0.31738297695664075,0.27675845094595813,-1.3997529593675662,-2.4817844283521224,2.0003868486249088,0.23256003275371154,0.1471004574637545,-1.3248328038388091,-1.4879361826109814,0.55905694185051635,-0.55719312255998588,2.2976657719403191,0.20165444477875663,-0.54179260872677271,0.5276645738014476,0.93005745613194746,0.54870255866683815,-1.2527878972963464,-0.028480213821302357,0.11696070848795265,-0.1530155966915529,0.19208955825788857,1.7258249577871292,1.5296698777279099,-0.76027435007213306,-0.23095684652736539,-1.3485300945645302,0.020498775154657797,-1.7876146270496072,0.75163076931021777,0.31545128898304875,1.0839745958571441,0.24100375904897017,-0.7376613698016371,-0.13554917377699374,0.63274267887084468,0.6131331474181031,0.6478086154878494,0.505866911022128,1.0300523444917633,0.22496014808089526,-1.5094864095837874,0.6995381019895337,0.05576975010823694,0.62750933708384526,-1.3253873155166924,0.69064384222255859,0.61647302657859604,-0.94215856282400268,2.499702098927882,-0.26235486465618202,-1.4255566600874021,-0.24663095028262286,-1.4420648742779678,0.022807959723190108,1.5471444340301477,1.5985596194134011,2.6589980926452244,0.41497416631534895,0.24184210684608459,-1.3136758102547275,-2.340407003022885,0.82452238235205189,-0.78123036716428162,-0.99366868936168629,-0.6805049654165386,-0.60940605998386388,0.23708295796846326,-0.42555337689567047,-0.66622682769832764,0.75186034017492687,-1.7329493076929203,-0.95182354673104885,0.85677264327411129,-0.23388659570360612,0.4243884692984613,-0.63072353787074809,-2.684597251472236,-0.18137980469578435,0.17397989219975907,-0.8535457330314058,-0.88885439278573097,0.95335332845824872,1.2772785661894293,-0.26215616778641765,-0.5413269917536907,0.12663212116844141,0.3814419018444018,-1.5995009618950222,-1.2997641836229428,3.2249656310537822,-0.45767443126598278,-0.32417096624034109,-0.5621363236920156,0.70316070741111958,0.37357143676951782,0.58843585322021408,-0.10345084645706823,0.33745861977533714,-0.9740369756633197,0.26738045329583027,1.5187668419245011,0.24859926987822564,-0.14155931381521369,1.8984800676092648,-0.88503766192947297,-0.98787048700295221,-0.25099660959797776,0.057080249230066903,0.70509559512998132,1.0895752274760309,0.5297816301264312,-0.54630242931510609,-0.77642349755535944,0.31657187743057058,-0.29858449448085866,-1.0240503920806212,0.56826826608072567,-0.81319571523587386,-0.17102172505560401,-0.05532750157154135,2.1532538455457866,-1.149006190075164,2.0846638563792674,0.24966566265417228,0.22123393436750025,-0.67864715149808974,1.5242562360732634,-0.87974163125988936,1.4282794163858035,-0.23369787886988561,-0.20310055881666042,0.79637460970305063,-1.3049549215171827,-0.6042313814562309,-1.5305802982789403,1.3198924517865345,-0.8176302911315122,1.0495817671805665,-0.096145865705862019,-0.40833107216612369,0.87617917070569051,-2.9428831033601472,-1.2138685095922535,-0.52106370010996361,0.48431945503858209,-0.8374780240373525,0.47037368681521208,-0.18919788355197539,-0.51718434565260185,0.17238197785510437,-0.40428022803472563,0.23206854076685962,0.16418871432988044,0.480661436418304,-0.43290327272440798,0.091957254559956278,-1.4735734547618713,0.26674044550148207,0.74898906338267934,1.6811322477965502,-0.29939919122981684,0.11225498228708276,-1.6455629695611547,-2.118704615513392,0.18444637669933661,-1.4435761461162406,0.57942630827672126,-0.2290171778764043,0.19546901195890251,-0.45889591989486822,-2.2924958587557338,-0.59493112516873004,0.76826155318789113,1.1743503721603163,1.1396673657518759,1.4416180023352212,-0.79033392711227968,-0.29652174921680463,0.51990020634730849,-0.26284180812186003,0.48259241513314161,0.099083826522162896,-1.339928801488163,-0.39596337347508231,0.76030984851057348,-1.2251306274013483,1.0389847534826915,1.5150109274412458,1.4473650635378994,1.3755091960733459,-1.8519187571838787,-0.47111171957877962,-0.47903347475390662,-0.66590587869800377,-0.51689669987599851,0.79899096641192024,0.23038864144837842,-1.8369898069225739,-0.62343522778608496,-0.72538972234499766,0.93291073032895189,1.0326137353351936,1.3092159404192421,-0.85744700694746945,-0.46094911524305854,0.59960612316657314,-0.2027671131429154,0.23792417765437004,-0.36749364368770093,-1.4045948585563963,0.4377860048478644,-0.51732575605103714,0.40220512359132643,2.0476227509831735,-0.012113908868362349,-1.0394021396511117,0.32239362849716935,0.035590492470560328,0.86168690112124335,0.32650733550797578,-0.25068323593648362,-1.2048650812313606,0.07045682723273014,1.359002595718896,-0.17816726845794012,0.42888686754177946,0.59489735680138167,-0.17090308613733263,-1.9477738291530382,-0.1789978041126575,-0.39181885408624745,0.57913774794207618,-0.90756583633732379,0.15088360102897874,-0.024397476462560821,-1.698504981114028,0.81756028709288919,0.7052966081271913,-1.7396542048436585,0.48322369054679187,-0.66298297999395794,0.42343039318476522,-0.35204720364511399,-1.8431121511896629,0.53593087661923067,-0.80205750818408594,-1.1815517709108534,0.25861622437238152,0.76561279072912614,-0.47644915875752364,0.91275094671206725,0.18030935618921523,0.099942671034966402,-1.8068555072959371,0.29149033106565325,0.34431309872053573,0.55739527388087218,-0.51434253500577343,-1.2208001529372661,0.053781336597968979,-0.4685390929835303,0.013018405654664273,0.97052857042065299,0.53517885145708244,0.6777301270280458,1.1689575868921174,0.25422303096923288,-1.0462710159311495,-0.57379110509909115,0.72581594140003114,-0.88955861463607966,1.0413609048497208,0.43034129569549795,0.92604028338086553,-0.14381053862980206,0.32366770429581831,-1.1264778693126281,-2.0448249910961827,0.53857683140814505,-0.25073771051770233,-0.57159895759673229,-0.21686962904565354,1.469887924868069,0.76993989624074211,-0.39051145073070209,-0.63683716083723507,1.0014065608347638,-0.21158494706037639,-1.2988133512259321,1.2791120301837378,0.37476262289627843,0.53451138527662223,1.8448036192973236,-0.931462562673395,0.25286183253251743,-0.81546791152593712,-0.65843684800928293,1.5110545618839222,-2.3301383344348432,1.6907127350921716,-0.86442595316696935,-0.47170438781381396,-0.075708291212243831,-0.89291087105066147,0.49397536465744868,-0.82120746139392986,-0.90454536833138022,1.2076472219888164,-0.34800002595615942,-1.2343862688937823,1.2422928870788037,-2.0698850378006326,-0.30894944268306918,1.3734256618509399,-1.4701856979991692,-0.52381480209352504,-0.72470362931214316,-0.47459405917429237,0.5690362683207103,1.0214713456406477,1.1395064205134395,-0.45401439484397349,-0.069376270323370418,-1.1866329857413163,0.661196315782695,-0.28495167910062802,1.0933539613213656,0.65742344166277922,0.36651256945780897,-0.33358034904237982,-0.074905671417327069,0.4245317009150974,-0.066533818264044295,0.50855146321136369,0.39918707782257667,-0.12372793410148938,-0.60257577903550408,0.82736538365475987,-1.0143077419365336,-0.58383557284577936,1.1593862416184466,0.68734264396023781,0.57385845594987084,-0.71815028507320222,-0.040113238707379824,0.17983294863640575,0.45760212721738797,-2.5032821645737267,-0.081680177972865808,0.35636848453748637,-1.0782994845453662,-1.0118404832498427,-0.21540954946760746,-0.41662115981645609,0.47490962281588905,0.54699283078668426,-0.73381742767959279,-0.73962209456057815,-0.0059484386086474383,-0.39034128060640061,-0.46010183206743077,-1.3975019748255191,-0.84083799281681137,-0.99522075655436704,0.40844865777424638,-1.4925882541952167,1.0217873790719243,-1.3048538885409953,1.0316178351773855,0.4296017041223848,-1.4532339970997126,1.6618560166619709,-0.48844210993281501,-1.1165172378242121,-2.2118813112522044,-0.73768560402512084,0.35205548217632032,1.3477305991213702,1.5280412871920754,0.48599319724676565,0.12492458993858574,0.13286136169627485,-2.0464314915489465,-0.4955670766541877,-1.1440236523273748,1.0563660707557616,-0.55565039714218756,0.82319132224034253,0.28309984447500419,2.5695505974212076,0.057767932396217365,1.4809001444238674,0.07861523724411118,-0.027376155707000315,-1.0224126944072753,-0.31501166615133974,1.1021200499711559,-0.92685789331118162,-1.5876120530504163,0.60616375299067549,-0.78099430444920448,0.087607323244413532,0.81266751828617279,2.3067164139436112,-0.051389714526082812,-0.033732955980380661,1.0953184015208348,-0.38457992353391479,-0.092943211417797988,0.45929466083525655,-0.12819926463092848,-0.60470788773955919,1.4304116459904741,-1.3336740827595939,1.0528519433044108,1.8051908122687625,-0.56381578834277879,1.4710301091720284,-0.76171840714701677,0.1196047813239369,-0.032104275358053297,0.28830794352552502,-0.13405874229514853,-2.3074031079816844,2.0840449380070956,0.20354320196266884,-0.068042583826477723,-2.309859803001777,0.26617867501818987,-0.96379179464269138,-0.27588319855155785,0.52527017610238269,0.66848166882087379,1.4651815842055824,0.80315264752437354,0.72376356299644418,-0.76574314741654892,-1.5035451255103969,1.0153918256180428,0.8081719891165372,1.8030316617057156,0.25550751580007763,0.041917656017807434,-0.52048577000899154,0.16401486687899933,1.200813176033301,1.6246156857905536,2.0273869198452359,0.58392415433788869,-0.8067878061726288,-0.04556839739119025,3.1831902972202211,2.070436457962376,-0.76123343760059081,1.8472540329276455,-0.21275058979631803,-0.17665200989622543,0.40794793664096984,3.907961915795124,-0.10508017023176924,-0.45436628683019958,0.85436691131406473,0.0078030797521315949,0.85748215464679733,-0.11975367286082272,2.4641142829461695,-0.88934887400380636,1.2044638821212792,-1.2705730159660362,-1.0319605883703791,0.85038070704937119,-0.47255132342199729,-0.40376773875578842,-0.67335052983034993,-0.84632823437651239,-0.30379684079364538,0.54389064621015981,-0.42582321897916209,1.5893423315008024,-0.84591921932671355,0.018533900247032466,0.095275403214406612,-2.0996925937031068,0.46466948281470122,2.0085981622229778,0.23456333424169734,1.7825694666619369,0.040536887641726055,1.7960155695016737,-0.50131115930547909,-0.96493800510869965,-1.8303775789403409,1.356508492280976,0.69628661134460113,0.083111021021236811,-0.9190237252099579,0.8556702091219881,-0.013105175458220011,0.80177944956297986,0.093090810775935631,0.53712664106090779,0.45198977712149352,0.68880798745438765,0.88753284405906874,0.54773110776035705,0.27151322632755376,-0.34245941317854689,-0.3965610991105713,0.55092894337339204,0.97576586851578773,0.2340485186430552,0.19010203426331071,-0.82196659981567921,0.30711223660949694,0.4362027490774662,0.51321768251156541,0.045586917692498528,0.057853963069369213,0.63094183254709268,-2.0658160873345301,-0.24722637864933891,1.6114784201643786,-0.40446010571539265,-2.1537132425972718,1.4886442831519335,1.1462944096283898,0.48163423652773713,-2.5405195793317215,-0.62118699163978985,-0.54132033284280845,-0.52375459190224072,-1.3474199818123522,-0.21292124114998129,-0.079818269790237928,-0.66203421416380015,1.1805951200781313,0.31964526787602499,-0.91987857416339591,0.71117758789257191,0.83564631872134509,-0.0098292157966558494,2.7245737254641269,-0.26056468438402358,0.33314119691396604,-1.6410302812789817,-0.11191743261283979,-1.0208545892032699,1.3230290641229194,-0.22841208160478743,0.64653215659112295,-1.1618185385115178,0.041307766567623271,-0.022397846490176232,-0.87112438042617524,-0.21361000899629851,-1.2620976902693322,-1.7473234159849975,-0.60235925660153389,-0.62926146420181306,-0.72220608109541595,0.81322561632595725,0.6519950264010147,1.1307567443306217,-1.7077410319840829,-1.1997524188322983,1.2628386062212866,-1.2203234049107263,-0.16762720528472452,-0.40749162032900371,0.35668463263764855,3.1043908146213974,0.18310835714990173,-0.25914214128969498,0.48126994650278354,-0.32708004945461633,0.061708222938992405,-1.1073565769642992,0.41005255774724564,-0.49091817910731222,-0.034651414676456854,-1.8894148542727003,1.8407154311325897,0.5508862142544142,-0.44228936516474754,0.49033181142531151,-0.15626295556518652,-1.8066880304391633,0.4633367427060589,-0.51039390529213169,2.8076442090545375,0.44397212208035192,-0.32815413950166128,-0.31000942576066159,1.4033862124227665,-1.6310889149992558,-1.0568122174411245,0.50276872630880109,1.6496945586361205,1.0747318652631606,-0.21896333907991866,-0.94530538981597578,0.45080889510135586,0.29664657642452552,-0.14317542197288416,-1.610937865657232,-0.26467345341029735,0.032866440346848894,-1.3141150496512244,-2.6029190919677099,-0.83160479116390973,-1.3818707593822623,1.3091131500026778,1.0659260301632048,0.73924659849896168,-0.58238387410292192,0.18979567595268879,0.73510945917780046,0.98963549762208702,-0.88297089956513841,-1.7742598048413432,1.2857359132742174,-1.3806210425000682,-0.98915723458737914,-1.3879926809808609,-2.5185420363812616,-1.7726349757661612,0.43735559025096837,1.2248040459476153,0.097528612477958673,-0.054593344887991793,-0.63863790262531939,-1.2951055356508809,1.101258850336936,-2.5621390434915376,-0.00731285051812416,-0.15507297592007233,-0.63559981465031812,-0.24469576790500969,-0.40616413616885966,0.50674246497085917,-1.6716100896868238,0.16990642227326502,-0.12816293129634149,0.65314854461699323,-0.94303850618860208,0.49313332824409062,-0.60710808011793427,-1.627295241655903,0.69139273960100633,-0.61622483778058712,-0.15263772376582571,-1.151365797072446,-1.1030459316509769,0.7794688265163644,-1.0158872014455311,1.0804336896656863,0.25503350503851047,-1.960485360795857,-0.26468386832427088,0.86769729809473495,-0.10964248341003811,-2.7398394703162801,1.4335403687871224,-1.1364206514282673,-1.7073685271732839,-0.93565147872195342,0.17285244602780708,-0.44254734425343245,-2.5527231323747102,-1.0770527698648831,0.22504906991244705,1.0445875200891201,-0.37549836093588979,1.5978701773147499,0.40332687486105795,-0.67131338089528347,1.4319776026842539,-1.9370178711482471,-0.64118571796668844,1.7192334501464177,-2.4692179180227161,0.064107993213226286,-0.45525341661271113,-0.26388904136269115,0.32975766864399231,-1.3921662769646486,0.019650278923685836,0.32527208761866772,-0.49184362700358009,-0.21312341227554576,0.46443979272314884,-1.3323276415769969,0.50131539933445435,0.45040871713672787,-1.5611845630310519,-0.076591357812284225,-2.0886474830645039,0.15196216191127593,0.0757677161613972,0.62577423683627198,1.6648486020987339,-0.2661019909813625,0.24822116821469006,-0.078647623512861545,-0.078613800353861854,0.82066093946422247,-0.44550498555141682,1.2726907640564737,0.69637700885349885,0.40836046256035163,-0.18079630998041121,0.8207255531203892,0.065620333932784519,0.24477776251662378,1.3925581861282852,0.052766974117949346,0.06243096782135079,-0.29578808923085775,-1.1253221163707869,0.32409024758774624,-0.22069728362119451,0.73025623796918215,1.3119208113703926,0.88775176901556641,0.38229219359988376,-2.3038644523527547,1.1019305467461498,-0.0036712988866642654,1.5418828084246743,1.3882989582259095,1.3111185766774112,-0.077143746939709004,0.23170218590011288,1.0764405359357145,-0.93727602231696328,-0.39330438047303085,0.091014062524119907,-0.13902744422968,0.087479621736966079,-1.0579784481557788,-0.70101069467827981,-0.61562668115943064,-0.81121528778353058,-0.0099506123711018048,-0.35269147621898017,0.47869920349861761,0.78916109873410178,-0.61980737246246864,-1.4599918006454902,0.67898555057788668,-0.40332929358032005,1.5021718656038308,1.8004692877468755,-1.4013150291654284,-0.2596341321392106,-2.2979397351874549,0.28800296988854573,-2.5937669504188325,-1.3203547328944605,-1.1573590507261782,0.02007060474433783,0.82038539936610222,-0.74366244214779098,-0.32640713737331367,-0.12024060520123982,-0.91693617076968725,0.70363907219771327,0.9945964346433811,-1.9622596132432955,1.0548057557017649,-0.023766750672608177,-0.70945800934015824,-0.20659355993515074,-2.698646400028843,-0.15296979463135871,0.70606415161296832,-1.0770136060019257,-1.5864449326957806,1.5306358109365215,-0.39358741466555414,-0.55355395351390291,0.12185407898004255,-0.73549517735408465,-2.22135221930992,-1.0082463785305118,1.1841943884938024,0.035531741304582649,-0.13164147289103151,-0.74482888925753132,-1.9425226884041094,0.10876697576946059,0.46741739186415748,0.80458625787295079,0.6520503693273676,-1.1470967872234148,-0.88198323432272907,-0.10017756868593648,1.0010935694491876,-0.29900190976660362,-0.43095586420513621,0.52447748135607108,-0.66759104820818227,-0.10897503561468616,-0.92218048291259924,0.15945023625496854,-0.10559850035366199,0.050752832272508486,-0.35620551624487634,1.8275627190225154,0.49097903305765284,0.90301763910410515,-1.0783061874925786,1.9227595621902784,-0.14706538580666922,0.72143066556793523,-1.534043472917024,-1.2044159281920597,0.16709927888230969,-0.070427393122938373,-0.17690632004307816,1.081825876923368,0.063230237307934575,0.32939562461902677,-2.1839845021751341,0.63143046475338782,-0.8286814638021256,-1.3847235313172508,-0.23562363858396251,-1.7368346995642145,0.44658248118758226,-0.74880572933661416,-1.4167463376230847,-1.5484144145870826,1.4515155734042637,1.2871746880497852,0.41500496527824499,0.32307264045217232,-1.3117753529352756,1.1125171374520311,-0.67339720173346118,0.32936949148208239,-0.37797420257284592,3.0424211946817663,1.2822388260123361,-0.73858448928708231,-0.022330444309564317,0.36458815744561274,1.2740179367699929,0.0039239202661907396,0.57206786503863427,1.7216368724099647,1.0040445042086006,-0.69299847900552469,0.9004141749487522,-1.0804393632902756,-0.12357545128857482,1.7094705636495353,-0.93843673454141419,-2.3213425045231673,0.14905777295512465,1.067882378281019,0.91190803304761403,0.88523159517445726,-0.27629699095399618,-1.3028191961564906,1.4184982897539089,0.59221697737580481,0.67102258870087772,0.64685177326720711,-2.925484819347941,0.028523799625571843,-0.46238260370645551,0.04922494629163441,0.2365421587306665,-1.9037473744530569,1.234599147961557,0.29059387038204115,-0.86032564217665908,-0.35198965862546094,1.8230531108469998,-0.67766914690675872,1.9491557287704993,0.85263202663307913,0.13085701487328324,-0.8282203141856469,0.0090070901757816641,-0.52349061926410834,1.1106076240709368,-0.47372870809522111,-1.1122129983335438,0.012874091211052105,-0.55812895282375319,-0.52986100435938288,1.6632399083009384,0.61558373000621402,-1.9800119941944854,-0.013763898594852832,-0.85849221016196287,0.37101615244333408,-1.7224574840730051,1.4617973338789125,0.63129810382208496,2.1044683042250889,0.032316245276438497,1.8101156424647815,1.236367024734139,-1.722963245553528,2.7391735890154689,-0.12700321798292158,-0.064590967671113553,0.18506804840514335,1.8562278100824912,0.14977641666358982,-1.3556697550631023,-0.2761140132848503,0.048377980522923698,0.19924314596121862,-1.731144192995933,0.19365308898518199,1.9791198339596709,-0.24910552466750382,1.4706230940364902,-1.0649526237728149,3.179380392902273,1.2745166351773232,-0.44444161083750128,-0.33057051517982122,-0.89701214405904595,-0.7807321661461073,-0.89586528235135021,-0.15827570953569994,0.24180425985226023,1.2185981865533067,0.32583291223806943,0.39298547970236436,0.64812974479394059,0.60610232264433361,-0.26187087206005738,0.33490043972775907,-0.26686885095086843,0.96819390288810747,-0.42667045321582808,-0.92019975110286989,0.59565112509061402,0.26956991476737685,-0.22561909325217391,0.99800571518301773,1.5012579875263965,1.6439366911934383,0.75832755448234124,0.80925937483747401,-0.66030691408831554,1.3770081610745717,-0.033654772401798573,-0.29265024283161989,0.0082736650506761277,1.1831229351538595,-2.1284644614514536,-1.2334137994606624,0.50436153561745145,-1.0554617615140085,-0.84699056157707564,0.18936700390534184,0.46326988994358742,0.92375693406316639,-0.16798652295560981,2.2546539706919062,0.95954173856749414,2.9170017155697483,0.99290091559583882,-1.7948928525248717,1.0505663931937703
-0.41159587124941238,0.48031122868541692,-0.71396418421696761,-0.51254570661843535,-0.18643419159012384,-0.037149918744526396,-1.5954477658364596,1.4760479816253227,0.0015594267915092575,-1.0182519642013812,-1.1989610529152814,-0.37774509505611636,-0.56575300489233726,-0.60888952469980739,1.4757666180810876,0.55591947722484225,0.39114963166466776,0.95188784676799321,-1.3870857343892022,-1.5748220794191334,0.85563815761632855,-0.35234580879594202,3.215100603435475,0.34567124548235639,0.80567436605309317,1.4592273512583382,0.79871091745924472,-0.97100679624815667,0.25395477398106175,-1.2910777410227066,0.16384685189108036,-0.42236937110552863,0.208955664531704,0.65040997078601281,-1.0323396761311376,1.2492709840722931,0.53740408441493015,-1.1666955913819637,1.4014749592779099,1.296064693777869,0.38383732682675648,-1.1057704624365952,-0.61704635687663145,-1.9862802597812945,-0.9554845367612691,-0.95630587679809043,-0.5099657935750691,0.39538549463542344,-1.0496741513741921,-0.85360820741045651,-0.2161824396986555,-0.14144617232808071,0.76743238254601254,0.37522643002986755,0.35133965479566698,-0.9977849393159135,2.109586842975594,0.85257284150963519,-1.0726133337426413,0.70113637255020311,-0.48266427712524063,0.60209446191966298,-1.122617965017497,-0.14867175434691363,-0.30762963803148202,0.74640922828817546,1.9891980404478389,-1.3508623847715431,0.43242394483293489,-0.46185494608840966,0.27531931960919326,1.9234477150220595,1.0077931732553416,-1.5159030379630152,-0.0011698565575103499,-0.36923988519692569,-0.020444409510767602,-0.41893036531628791,0.44938440741919289,-0.44777628700739042,-0.45976147169078313,-0.37190053255052591,1.7385465075458189,-0.13276889083466301,0.92664791299201321,-0.35988073749293686,-0.27062819045001935,-1.7659635141360277,0.76008136400359239,-0.2082912541798598,2.2143084492231782,1.3759800732918872,-0.24029288196689566,-1.0398223197267753,-1.4508925385704461,-1.7401990323724914,0.52520122509735701,-1.6733647616578127,0.24397769647467782,-1.1458667827183595,-1.8664158516225853,1.190698427584447,-0.22958424061932811,-0.37637014371430932,-0.17365874385771937,-1.0931330504851953,0.87819754046982479,-1.9639451829535601,0.63393435729569703,1.1144861839009264,-0.34076640758367932,2.2446798327540018,0.41046452784319498,-0.73470867940219875,-0.99920257629107379,0.1208764460436583,1.927175735488617,1.5532874292541183,-2.1433098804495567,1.0414431457017645,0.55378985075658027,-1.2713138514046531,0.10639240819935153,1.107385812691567,1.2085980315074512,-0.70930336775812308,-0.88540657793244648,-0.11498344739830296,0.45875658561669624,2.3068173205428604,-1.0182254113716176,1.0147371537398857,-1.3794689069254835,-1.0979691441666557,-1.4915415075659508,-0.36091148130354256,0.84289383805468254,-1.7392734025955932,0.33360091988720086,-0.31967531097919138,0.040724590447454148,0.24276292282079867,0.35472964398543955,0.52787135177522826,1.7883809790150083,0.74511360074529209,-1.8186454778579897,0.7960088519624664,-1.6564428203088111,1.3407237279081332,-2.5640707163528638,0.61538002382629353,-0.0042630615986985832,1.8022460801794813,-0.96359731191010911,1.3883671129685409,-0.97705715016814099,-1.2469325703766971,-0.64698048350803572,-0.75142572211832781,-2.6452724045299383,0.0096933373352829002,-1.5720351379665773,0.35250476194220598,0.2313143047130776,0.29434057538148423,-0.33662649152944496,0.85220368755326747,-0.63810660559212107,2.2223319455553079,-0.69817231149705017,0.5358691494110106,3.0064469064527031,0.09782608441948068,-2.3027536772977064,-0.77075448271745828,-0.84659848665313653,0.15433505206124928,-0.032012556471317295,0.64718613641786937,1.1890153444220544,-2.174423970773542,-1.8740265512734171,0.87233377238601495,0.39128883656719488,-0.15786069555995444,-0.071003053196073557,-0.80246569715055849,1.5803502425726761,-0.99693758346438266,0.35923657988870544,-1.8758391452010903,0.56142355444254322,1.6789882045820073,-0.3371741840202187,-0.5524795834034063,-0.68194594356406835,-2.0874429366459117,-0.99031577913517654,1.5538798279183261,-2.3496077869878373,-0.84520470685317117,-0.5502482973956756,0.78548290630531648,1.3964259746878924,0.95050506782706856,-0.51314628708978183,-0.036460743599853386,-1.3196285161173191,-0.61196131307314983,-1.8804584577318277,1.2835552829057961,-0.010483870699212373,-0.65022108191238037,0.12998280026095885,1.417292144154829,1.6036191366880019,-1.5682021561859498,-0.045109376750042812,-0.18005705616032736,-0.3142746297592775,0.97784689331563568,-1.3732480078444043,1.4159500100532625,-0.84374273908977915,0.13183478410820881,-0.4977629942296542,-0.034496323794559067,1.8462135076833679,-1.0492680180572593,1.8174795679229792,1.3137911618364648,-0.18817356328540169,-0.58250704447901869,0.58092697993099174,0.67342141963746682,0.68707132258486769,1.4630214306988345,0.11961750408229872,-0.95613287364084643,-2.1405552536358097,-0.014410206595056011,-1.4070130549826456,-0.41763521026923628,-0.4463961399989736,0.44641464564068467,-0.032201115743450193,0.07844286157223232,0.80657070460364388,1.0121915151491589,0.36071744169300429,-0.29719100083977334,0.94058267969194931,-0.6498894647679998,-0.5161397818930924,-1.1437675277363579,-0.7184360808576804,1.5387451236362528,-0.52202867661550822,-0.84367685958347194,-0.39993590309734722,0.2102562068961705,0.92256488638695822,0.69653449129375167,-0.48440560374168207,-0.28552279390166774,-0.0083904458080133835,-1.4075193933712022,-0.18137028127784774,0.75710483400135931,-0.18591524388881608,0.50324618429477919,-0.23769859733877852,-1.1730242568074094,0.45814018946651397,1.1276608010400433,-0.52170347257589489,0.22739671665394007,-0.26553326947547479,-0.23790021870070402,-1.722118312476782,-0.10115484225707753,-0.44958551709418776,-1.9212694167877087,0.87445532969229878,-0.92475345719451785,-0.47892610436541772,-0.81130441732966241,-1.8769610665420158,-0.099419034450528326,-1.0617166425273459,-0.41081268620387229,0.91135542632780642,0.056860489131264791,-2.8518044475249642,0.29249118921920347,0.83457960188635472,0.70204991135201378,-1.0245100159946623,1.4881916624620404,0.9453054661018927,0.12927278228126232,0.73744639482346686,-0.56920278054444851,1.0078522921001052,0.053784610370804092,0.7598994603569641,-0.5677329929961652,-0.79847319771211833,0.600075358168491,-0.089280994552805512,-0.48968692070098618,-0.094252573948087545,-0.78715013604751105,-0.70911538688208453,0.75114755240586162,1.4732014296989686,-0.13816051797137385,-0.068038057612067285,0.20181138290924819,1.4459724622420831,0.30833357630710534,0.5441374595669588,-0.22425745928707264,0.7411011525742891,-0.60025175130915176,0.91123058924807698,-0.0067481075019360697,-0.97045530309587136,-1.2799445573730484,1.0219282736307305,-0.50801122061969195,-1.3484914790333722,-0.8906854506848555,-0.19989470969175535,-0.072572550814753764,0.88103751834721278,-0.16061219976514507,-0.71058505905920422,1.3486448281701338,0.83864090735035679,-0.44040459710560625,-1.074401462273965,-0.13276580638243968,-0.89848701916714246,0.19394165413808753,-1.4852628459930326,-1.5280591890423463,-0.12497526905415415,-0.34949175546415201,0.056187786613887687,-1.1995411966384284,0.5612353093558321,-0.00028832516963304012,-0.77573970140665693,1.6786729279158463,-0.82017613411264056,-0.61794942002980369,0.76056216236976304,-0.72682374486227908,-0.54827486517716872,-2.1554838667578715,-0.081322276751013542,-0.040509920093234328,-0.89103249771042403,0.66508459335342784,0.29148954330025484,-1.1944653722730609,0.92759825557533915,-0.63789646387465193,-1.2169394483038329,0.68756505343194063,-0.56044477879792187,0.10429034495910069,2.3642972374259119,0.2567435826391275,-1.3731287868433919,0.10375406931681569,-0.67189392047925678,0.73380442383439681,0.20491280642342913,0.90448868744276445,-1.1939517521861818,0.61569475190062328,1.0211426953142004,0.59268550861455893,-0.056424357827131975,-1.6065665439591925,-0.36205058740474855,-1.7192915735465384,2.5536034002006232,1.2988756259898997,-2.9779964263279877,-1.1156480873014962,1.5178010350616358,2.2085497212180818,0.34784401601781756,-0.48816752585252043,1.2613009511621462,-1.3711040459297641,0.02762242921069686,0.68114976578348374,0.082462387592280001,-0.55253837403059569,1.3933245296218915,-0.83008133527053307,0.87164883300148888,0.007133963032839058,-1.3649221819344188,1.565463071164144,-0.43646853616033182,-0.11225392492420933,1.3755525717646278,0.5367671123742912,0.017610742531020046,0.64402121458748574,1.5698527398155824,0.68059648533619599,0.024631513849261998,0.78240716628781848,0.63699547456284134,1.206946791657538,0.26742544216634029,-1.3361324384167323,-0.27595139600571467,-2.3925038758899277,1.2161163820933907,-0.72813282424057268,-0.99397218291461131,-0.65410562699336128,-1.2861599211943271,-1.0700716724813732,-1.3432313801274955,-1.3567769943977439,-1.7173361500456468,0.24832994702169997,0.10798401335704837,-0.54538489302855386,1.0480388132271869,-0.45412414244935467,-0.57338113618454944,0.034272278710654941,0.23723861481797681,-2.103018876349521,0.26872056787550197,-1.0382929660335432,0.89582203804653371,0.46840038064382866,0.65938252398380826,-1.7084224989311876,0.80277920596192565,0.11265410889063283,-0.21041332298605142,0.21920482787553913,0.41869780328658512,0.13040918720698436,0.96380339753386157,-1.0643972746141122,0.79341438353434823,0.24216486580155666,0.29433723539786305,-0.8956102112789357,-0.057695000133591204,0.27453230819329966,0.18898403507702086,1.1465343774126673,0.85635591186273718,-0.10758815168408108,-0.40035867129789332,1.0140421487052023,0.37413784967194202,0.089497306036219915,1.5586683038957445,1.7906229723463492,-0.29877979711076702,-0.011713595610764365,0.2281055144229337,0.30145171800792891,-0.36500839192472628,-0.099842159984172063,0.74039265866337145,1.6198084122627168,0.91228920410210124,0.47857042308986125,-2.0276976698823743,0.29263500953051147,-0.57759726914182041,-0.32606851073677329,-1.2498703001916684,-1.9398084130479494,-0.072183824965917381,1.2967845736397239,0.46933931838976045,2.4115206045923152,1.7402935733027942,0.092225161572568715,1.5020243677627467,-1.0966733990037405,0.26153338980573593,1.164604489334659,-1.1083157270965707,0.20033352717738115,0.76329635731129952,1.107813274210605,0.42989482972198811,-0.84034002475900715,-0.25142084244241159,2.2363913139631251,0.053887565802815444,-0.47029765217462272,-0.12163701335638322,0.99327314799491473,-0.083169760484921446,1.2643217448663095,1.7097782648484237,0.090414036000064882,-1.1001995668857325,0.95816893353774124,0.48893993308692602,-0.11325795676632314,0.094849317880103923,0.19827472632924126,-0.74132463115143421,0.48809085014281739,0.50858667358035792,-0.19601221193847901,-0.15928583878625624,0.27527719561032399,1.8294582035836358,0.55293063527642483,-0.052821205248354555,0.38360824034690877,0.45311650433996659,-0.24689566515961453,1.4226857591253039,-1.083080799312464,1.1433885529138321,0.15429347069602875,-0.74389288516313601,-0.49825927007603832,-0.5630536013393076,-0.26194887845547826,-0.29629803063933929,-0.11477578201302516,-0.77434142534204808,-1.3574795215508304,1.571091715624616,-2.5759168736225453,-0.15996797560045339,0.435043200298175,1.2304474222770294,0.25577424031746909,-0.092498347798763231,1.1051725576019644,0.77412497636533317,0.22713689972839304,-0.7041204667841866,-0.85866513497425745,-1.238072618873828,0.67699631383322945,0.5294433722681432,0.80974706333469093,1.0372028740231292,-1.7693618343742561,-0.007845326583367656,-0.81105956043712235,-1.0262703184590378,1.077690021098612,-1.4592890236334002,-0.21785416889410128,-0.47798277706225961,-0.21496088753520878,1.2742061619611791,0.24360124647808892,-0.82378297101908049,-1.3466704526887086,1.6133614672476444,-0.29282298745289631,0.0072479690709114798,-0.16043879627415419,-2.0421455828482094,0.38160991266316036,0.21282187028370736,0.071975336598986972,-0.08405593505657824,1.1006938126320254,1.533988505646019,0.051656856321201983,0.79543065446825811,-0.15927925960734485,-0.66816459096458414,0.13207457887111609,-0.39960948717592848,-0.12781024648930803,-1.2514218105793913,0.81488885259655841,-1.8133370229872936,1.0739616131299956,0.72844131412974156,-0.42364592398543061,1.627705381600048,1.8036525599069799,-1.7773234018260688,0.3656768968368671,0.12008010935390717,0.61211167870979799,0.13213145760198383,0.61449515733925786,-0.60819295555531505,0.72296942960939947,-0.25685376931902698,1.2614930252402921,0.30460553949532243,-0.36307768721056072,0.43350796271225156,-0.39734972846786126,1.6457745180251693,-1.6856351404233449,0.53752168031890724,-0.99955571455848979,0.78144990160480088,-0.87941898156665399,-0.14635258032962828,-1.0307800654832828,-0.93107559882663671,0.22533423953415921,-0.964954363468567,-0.80475962569147419,0.23275574222225062,-1.3222084179097076,-0.49479553721512909,-1.7020170821047464,-1.369721802696706,0.48491820619693277,-0.25603518225779587,-0.17445277534428194,-0.37439982991019616,-0.87968362249332943,0.41538290833898306,-0.043604675425103982,-1.0749963695699545,0.69569705110026259,1.302653042791643,-0.49590802480521495,0.58569914436917492,-0.89412007567704999,-1.8652148413935512,1.3605681859305816,0.20978554419777867,1.8474937174791408,1.3097404507094674,0.5647937652423366,1.9428904540993845,-0.43051246581869301,0.085902875665463882,0.34096830499773201,0.44528687651425669,0.32890389261864272,0.80172040853813376,1.3888919379968769,-1.5807956866399782,0.41188844578662465,-1.7064707007948736,0.2164884340891135,0.56628591066888889,-0.026837092452049387,0.53131285438710818,-0.63310688204115007,-1.2230775669862597,-0.27320844127031452,-1.8113995427488256,-1.7611481482121458,-1.0943306038627185,2.0331159503819149,-0.14000202351184765,1.3435090179122267,-1.9884761769691899,0.27512385005232237,1.6300514082690287,-1.6228689617417726,-0.44834838450082859,1.6608680961991733,0.98892974032926528,0.28262666159485822,-0.99232630124459353,0.5039252339719279,-0.1981947740160272,1.2476063084565245,-0.64794191225534792,0.013561742267544119,0.066650882975808901,-0.23940055335926946,-0.19369573931713671,1.205251177862886,1.7233000621932479,0.055192129031645054,0.21484381461510596,-0.022545072723279248,-1.0352636963057915,-0.32038368549816537,-0.037118529924431098,0.30358059579519725,0.065228831590227465,-0.78622742291915781,-0.50549350810477056,-1.7244987236573048,-1.193503615596504,0.29231318230528208,-0.56166257530900809,1.1513686947512862,1.740224512865794,-1.1100044545996977,0.6050382347469444,-0.33896167784770032,-0.2529145794818925,0.7801835195910195,-0.31881521936951196,1.1720340315084758,0.81275142773937425,-0.26194462171641025,1.5553489105613472,0.53140980643527169,1.5993288913465711,1.8028084423035782,0.62416201467330623,-0.96200456526275213,1.2950078752014487,0.069801636048040849,0.47810975456462812,0.22642229551738702,2.0457758304807543,2.132900621997027,-2.2818454006860578,0.9829013198916865,0.8653502354393855,-1.4008718019611419,-0.18740872051090202,0.78418454076999333,-0.58039178515711198,-1.5699618807147617,0.019264546930527801,-0.040204883433783985,0.75540508313163945,-0.58180350463118924,0.14880078016193993,0.66277352321829208,1.041891620462938,-1.3007258905699361,0.29616507064657044,1.0318987887705533,0.63022641837127302,-0.81068958820308989,0.68558183129399541,-0.71359291609113285,2.6052768942659443,1.650042176865711,2.3155995739524569,0.81392729965846011,0.87713119967348629,1.5101416740021061,-1.1676015409428546,0.48277548256469716,0.37122562612596105,0.65774892003152374,1.6560079246618113,2.1650310119824105,-0.95137449115398121,-0.78722956719991066,-2.690911102281206,0.3315897744572387,2.0063832907458097,-0.29167427961965198,-1.6687430331033051,0.3921077384786838,1.3239698729611267,-0.27592756604128882,0.47727126300312378,0.81476834893103534,-0.14290982647989287,-0.030059260712240896,0.36644944994703188,0.11545882615866329,-1.4209504282140364,1.0653123475342836,0.39986790700485975,0.60090858289743476,-1.5150192936881852,-0.46792361577839287,-1.322226303539954,-0.48822104165711522,1.0442150091120486,0.57645364243050345,1.9475858134002024,-1.0062587030937864,-0.65591282415232155,-1.3809596422484032,2.331075599177761,1.4970680969890124,0.68039025736464076,-2.603246673396491,-0.10343248691238803,-0.9836534184902298,2.7099027144980008,0.17646471973616143,-0.91899979470277215,0.014245468422173228,0.91749820498259105,0.65124067365675298,0.6511841149033335,-0.69255076043719865,-0.94471234817459004,-0.50543843891658347,1.0822239555015567,-1.8076454143872009,-0.90746439457299977,-0.37906652686479342,1.2144990637737338,2.0678309178078291,-1.3482667517633453,0.31392163212064467,-0.53795072161886393,0.28441052985114301,0.53836539094242852,0.16090207488156796,0.47274545124303369,-0.79722386684268054,0.71273626615002417,0.8061040179587361,0.18765961534411907,-0.12265134846469958,0.21489172501065104,-0.3843118186289407,-0.65430857152767596,-0.80139287734647813,-0.97866510558061115,-0.38052276551949016,-1.4516131676441801,1.3720117732320865,-0.14318929858865356,-1.5285034123760779,-0.94187879106802119,1.5026435058605525,-1.5149436242629164,1.9139139133742646,1.160685250153134,1.0519885105604201,-0.73485651468976443,1.7192597011584032,0.49609020245492991,-0.49159590832823291,0.4222007818317266,1.3274159143817499,1.0340132235214907,-0.3506320119108513,0.88130014220177177,-1.0292503074512958,1.2530364297538732,-0.12619775429015218,1.2166184377516405,0.29398034045213722,-0.61138973259577445,-0.8150652086117508,0.085637135410820214,0.27719866020416239,1.3546496907855807,0.091183579597709216,-0.44943475851497783,0.31796148006604863,2.9607756520546138,0.88226991492869533,-0.51624959275121829,0.85996527033885339,-0.31558532724548122,-1.6525667110568043,-0.88652741478465635,1.2586710000338559,-0.097603283901677912,-0.087374376129945433,-1.0656403501012643,0.13994897931144118,-0.25717263884877861,0.029842723290060557,-0.57995176120851122,1.0944544967166254,0.48317930866691605,-0.11631737279682436,0.89472023484845431,0.59049376944800314,-0.12918356938793352,-0.55193760363561328,0.85327545669910365,-1.3382255627741626,0.52518544122196475,-1.3458566646747441,-0.62893470853479938,2.2310774097749331,0.282283775439023,0.19365979779963674,-0.0094609510900271719,-0.86821315231129115,0.50339742988140135,-1.9552801934207182,0.87522405112080948,0.72835230633622383,-0.29384055579819013,0.86081729271674157,0.42249163397026701,0.9890536730981897,0.46605010030565741,0.22649065583239289,-0.37676674288377859,0.092202317073296527,0.90242273400642681,0.068894960271976918,0.37459559823187005,-0.85285506451148962,0.19795214756167862,-0.64489174801625537,-0.78569563040957824,-1.2328453590096602,-0.84776509751916851,-0.87469747598151704,0.56959964780778016,-2.3804502832020473,-0.039739127666113261,-0.23817676162005694,-2.7437839616090187,-0.33438409416898263,0.63957621228986716,-0.72951310037647854,0.90751140508073158,0.85125519195211863,-0.8208821836814898,0.050009634234147893,0.32256825464968292,0.60406502817641061,-0.35645335001114192,-0.41677587289114743,0.40768620480387091,-0.48228371953988208,0.12946037141110986,-0.057327402509452396,0.47871880664032473,0.41106284992125014,-0.90933489172666715,0.77263640737020234,-1.3038208005591854,0.079099848706494391,0.26021661864190027,-0.58108009995986465,0.33437383895575773,-0.39799235435711394,-0.63704032396723786,1.6645957502242843,0.39613518328218034,-0.33328906611365838,-0.38213473194554692,-1.6565413114430512,0.74649745968399472,1.7626447269930072,-0.44220152589181427,-0.13598540413645041,-2.4083576772086972,0.55774754775202429,1.4591848919934181,0.11204645691975823,0.24217624812812899,-1.0288994908805651,-0.78572472687225792,1.2768838782396483,-1.2666011294230379,0.51957793339547698,1.0686793832250234,0.43380853580456996,-0.24774763032509992,-1.1816060203746934,1.266052859201013,-1.8802880218408347,1.035330064093434,-0.84687633014502206,2.5149433045643832,0.17690322304082892,0.082283099375457636,-1.2122495781407312,-0.34771016674772376,-0.88145999718574253,-1.2903657936567146,-0.83123325466497122,-0.59805175701396229,2.0811293581528822,1.7434192678691292,0.88313273054728136,-0.99398169869114861,0.040751011465215849,1.2751009072415316,-1.2907082686357823,-0.15425810174937002,1.8255391002029742,-0.125765069991429,-0.24538501555093309,1.8123049194979686,-0.078355937864076769,-0.7755486302724991,0.82852821799421505,-0.24079853840257198,0.11320334979606468,0.24035365057832761,1.5791085799587075,-0.21339092468083426,0.86114694469480979,-1.5609413812752615,0.43148379783169305,0.23493778601852339,0.95229289058510846,-0.75606655031629055,-1.9927974284919292,-0.6577729134577941,0.026331060912642895,-2.8007097269557821,1.2444241010248227,-0.19539010424847167,-2.1322203913879108,-1.2676136293675107,0.63273180279761787,-0.89039731237237052,-1.3115460736253644,-0.76308337142344751,-0.98329876360969259,2.001982961881009,0.05198040630597564,0.53946420490183289,-0.95040454703775812,0.79227936368497176,0.50914030616521189,-0.42794609298088399,1.0450373513900337,-2.003741523975739,0.22476165756355135,-1.6004685323065322,-0.30311603586233693,0.50400697896576785,-1.5731595799906732,-0.23075693075511985,0.5236755591497092,-1.3345523332561999,-1.2521561011348701,-1.0572652570017078,0.2934261852389583,-1.9656452113916634,-1.141867401197012,-0.35504272136809323,-0.14089596770665216,-1.247498496305149,1.1293716803228095,1.8349496472168654,0.39130186388421528,0.45657236923719019,-0.34370347394666789,0.75867763112519981,1.0879893196184296,1.2233537542238597,-0.74664165280002404,-0.8756557194218948,-1.5444852081279359,0.53437240408540199,-0.14150065635993234,0.062715643356000911,0.80017370190201909,-1.5211539542554602,0.15736477562635764,0.38576889405387782,-0.14079058213522319,0.019444019224878317,1.9064806013833415,-0.34915504918218976,-0.51065276722262076,0.184765124396509,-0.73480599644377498,-0.12624743578029504,2.6168496675958091,-0.33370654158371271,0.05643103399289974,0.18534469984877247,-0.84943923488047846,-0.30108252318759043,-1.1021687236676032,0.19960150908286572,0.78030398036287274,-0.32504569041027825,-0.62707457118402921,1.097492348669916,-0.89625988803947076,-0.29338731363327986,-0.74555979735088285,-0.92588651012115297,1.7019233433093774,-0.96582719059433575,1.3058599143385587,-0.78301164989570582,-0.50354925095676206,1.0060384318245703,-2.9047267460998638,1.4745049450280805,0.54615496133342356,2.889439386745023,-0.085078918278590931,-1.5758945002975575,0.74766280966975363,1.187606536534044,1.6965425556839973,1.0074797179057637,-1.0593639270847068,-1.3715344299543417,0.52342705450743165,0.86440902529453945,0.36642298937493284,1.2574396177169884,-0.68625286897692961,0.51511773241240066,-0.76119071605586375,-1.97830665071384,0.35565493174991508,0.19279537227608576,-1.0948084801864453,1.1271742293369957,1.8411589287514607,-2.8838579914138101,0.12379274723495957,-1.345606161145299,-0.10461919216048546,0.36097457163335767,2.0582889524146264,1.5922460848131668,0.99727780401203059,0.86335154475442499,0.087486348437424047,-0.85009261310730577,1.6738653761906597,-1.0759340553500849,-1.3062496363934224,1.0300538251786033,-0.25499386128024193,-0.80473148078394485,-0.077382317512387513,-0.41658117685923635,-0.14121979232262974,-0.41493285563104371,0.24878867394410295,-1.0685745672259774,-0.82489336319641104,-0.61170566549642524,0.48396526719710142,-0.66564255915386861,0.85208585872059339,-1.636894432559479,1.7423702462645347,-0.49924480472131338,-1.3264872834358705,-0.40107321164666754,0.92373463686799662,0.59568237515829026,-0.63257861494814116,1.3397751520958543,0.64924483957634538,0.92830065869956369,-1.0611579957209785,0.16113648796195729,1.3405249998507616,0.96723535917059289,-1.0647790921309772,0.28431040567846749,-0.86440723037193745,0.19847346548723002,0.69882518596558096,-1.2708964059506989,-1.5676914821932157,-0.086182331885467089,0.2236565007577449,-0.46795601393860325,1.3527368160854076,-1.3823662103024399,-0.92169930476608819,0.15462186569177175,1.1823361819543774,-2.0124860720608773,-0.82608329777424672,-0.0318874049442429,0.6977682684284251,-0.92128797096482196,0.73098471901373541,-0.56193625121648549,0.70391805368883875,0.66923898569024964,-0.17836908455451139,0.39939064138027519,0.17973025435184603,0.30055178481556816,-0.96030622945791089,1.4593491427949417,0.077835061920435461,-0.30699681112087224,-0.048389880860023521,-1.1408229363215865,-1.0629403647235662,-0.43782630268702227,-0.7051084233738546,0.6522174774100018,-0.83426028163798571,-0.50193931800998703,1.4179159095594591,0.67968042454361266,-1.5875516610681282,0.46350575852118603,0.43263722554699496,0.33218324510089531,0.37701291387750996,0.29760836163716592,3.247702630646212,0.39563396805654033,-0.99027176612279477,-0.74791158649314182,0.83044405742723715,-0.61259305642642792,-0.62499591003419575,2.6252629309672795,-1.3642327572086141,1.2238790213941273,0.21615621303032093,1.1132518108784772,-0.68417495984232934,-0.53181987462312619,0.35624999667631585,-0.81103426570976789,0.1028460068718018,-2.3259112691642958,0.33413261877808476,1.7377757004847396,2.5088962738648686,-0.84472668395980111,1.1430363478593812,-0.047576157359061136,-0.47436735102645361,-0.18707339234975409,0.15250694533565293,-1.0841566192742547,0.08239350610786568,1.0240435252691626,-0.95705018555141119,1.1615920922655718,0.9833001179793911,-1.3924337472059276,0.39248139555410511,-0.046922760160399528,-0.31374187365204359,0.92590177493716785,1.0049890226514753,0.3125467558006399,-0.14896592111218643,0.73962825963661571,-0.12575060683557843,-0.18691599822027699,1.3955685642846818,-1.2904178270039646,-1.3670254606420995,2.009971848727504,-0.38994829137176584,-0.46354394982514729,-1.3316706185431166,0.51904267529419623,0.47582954598071969,-1.9720291845739313,-1.0698358560897485,0.074581462095371989,0.73664858956396917,-0.30933838363522975,1.1061716874654433,-0.053165922532070718,0.38199700524746127,-0.43566425298370987,-1.1755419452643556,1.0613650350381001,0.065846238877626209,-0.88999746605880203,0.41333316908824924,1.135916805997381,0.74237353468786238,-0.15755541674275611,-1.3351352519892572,1.8557287300658696,-0.061955466041702309,-0.49111240861591032,-1.2780675320735115,1.7871379109025496,1.1781079471011928,0.84825905652810929,0.90339183617926966,-0.093984276830990879,-0.15497357576126181,0.87781140133159696,-1.4329278170833482,-0.80872779102726622,1.4220679025763765,-0.13070505777066946,-0.56359859960581815,-0.40956241138973604,-2.023871349776917,0.23040347623937557,0.60761629411696993,0.27215357889810188,0.70161601588853995,0.19947640081519846,0.51859902322384899,0.44540157650679957,-0.087698136800889503,0.57322015591777187,0.64024473949761707,-1.637961725079528,-1.6736265277259694,0.025236028804255909,-1.862181582548609,-0.32599934104696759,2.2497564131856942,-1.1595951389935519,-0.82688123661404256,0.74017799410247176,0.3860956795287695,0.99734606395509462,-1.0856261118386272,-0.67805020602921562,-0.29210162729405981,0.88257006196489574,0.51512811658790914,0.78255679720696347,0.78540990436795066,0.54428291215910685,1.1162385382959568,-1.0444802705585716,1.6338892534155038,-0.46443710354941076,-1.7681430002263641,1.1573384376057301,-1.9901558012671561,-0.14131112017137287,0.060808322317123846,-1.2835146563322932,-1.5373164318014512,1.9164950107973853,-0.38900057523675585,-1.191344513044261,0.17049370331516922,0.29600994229317462,0.40056936627298656,-1.0610387567971318,0.029579045299395,-0.098214161370858588,0.23360112079010012,-1.4302593491582634,-0.54273085699556234,-1.0617906204218204,-0.29897457667911481,-0.28236395113395485,-1.5643000295679999,-2.1864477387431074,-3.0480508054036162,0.40970481776794648,-0.71422036782667553,0.57349240635018439,-0.21163578398052973,-0.6275864735572686,-0.46023547896080313,-0.79643286543571024,-1.9247044393112906,1.6843551175421487,-0.92617315103512654,-0.11106569875142384,-0.52716982836752335,0.011813450827861416,-0.4395403420757768,-0.74653728621530124,0.38637159106329527,-0.36985130309759695,1.5363903949479267,-1.3979531033113466,-1.080321175148242,0.70454634721789722,0.15018666239143472,-0.10139106422064426,-2.4527233054922073,-0.78575903506854372,-0.88529958333776182,-0.35240523253730643,0.0085577297911016998,2.0325883421045217,0.89516397180837992,-0.95756102188662018,-0.3456065582450959,-1.598850463102125,1.7627687781643022,-0.24430041622266871,-0.84643400022677062,-1.5966541782718962,-1.0395305319049779,1.1486407212893199,-0.81280230244100238,1.1408862361474734,0.48214793673911116,-0.21224315122853293,1.0401240224444486,0.98751476643797709,1.3778471040210918,0.78623380937131992,-0.026643788807262089,0.2924700575174346,-0.60354799037815998,-0.23169636481848779,-0.64510504606605412,0.94907169815926085,0.44254489891359822,0.74803817992729016,-1.5111559200853335,0.25078074384927324,-0.042483027427676359,-0.21682508329982816,-1.6023471888363054,-0.66471408751217331,1.5195330087972505,0.37394634044097075,0.2657106282772016,-0.84286038277181619,-3.2670701975016212,0.082792468922331539,-0.48534324159433845,-0.035091443406203703,-0.09985605989465933,-0.42228156879876977,0.29963262579249095,-2.4596120460135475,-1.0897055740544834,0.14435619601858485,0.56023475116076848,-0.057208606129113,0.71736467241470914,0.80334182922509634,0.8661522082575972,-0.26478245801258193,1.3184704166893355,-0.27235851645297382,-1.9184709058613534,0.73900689230664729,-2.2305784619104738,0.032709502801243073,0.33330260089226588,0.95239693407103743,0.4228279230023767,-0.73508444061334821,-0.79740544507548061,-0.46572658566544556,-0.49967201193631355,0.70527053229941905,1.2770830482660467,0.90657196627776493,-0.68203463330393621,0.55116955814500457,0.16415902948372099,-0.63085931919238403,-0.69556906517395423,-0.25933270330049152,0.081206270218962193,-1.0402902190891519,-1.1930380273863648,0.40583368267995945,0.60971123206629929,1.0591015061539588,0.30687780441365764,-0.082513833484996066,1.1484250891853121,-0.66494863880677324,-1.9911097609511947,0.83279863764930584,-0.3697995069230699,0.71657275637855322,-1.9848539008977564,0.26687905555891211,-0.94654745583774569,-0.32890746405239524,-2.5326472924140186,-1.493806587642708,-1.5116307035547645,-0.48145920856688051,-0.74675095959004767,0.097143878508453699,-0.74912609708171385,0.16951543931217736,-0.7307644992600566,-1.0579482517577923,0.54760191334567143,-0.17487524996961415,0.069217923653249941,-0.086549290169389725,0.52381826978028811,0.44169459456096433,-0.68878262186285355,0.39783926443769324,0.44761874827017728,1.9611979457581357,1.1675255919076566,-0.63639845307530396,1.2218796260144857,-0.55280694790349594,0.17563933695649941,2.3387280958438432,1.1233598585544837,-1.771887841018194,1.2374811121755322,1.9826381689675532,1.3903324409196247,-0.10947382381379681,0.1448063291527818,-0.37216115603356553,0.27016228055252517,0.96399873839436767,0.45290285391631907,1.369757125307745,1.0901186116026536,-1.5144750436538699,-1.870993073482017,-1.1744820485851666,-0.58616440691515437,0.71083409943430798,0.050284657981836081,-0.76616771413270401,-0.43000579952959234,0.52937970124950939,-1.5257338941289453,-0.36200572675439657,-1.6713983083927231,1.5164409094666924,-1.086782228173383,-0.28211182217204045,0.013659200890021194,0.88468713397057142,-0.91294087721006245,0.99756938949809371,0.54811521636802296,-0.70110956488037357,-0.74981984463633988,0.49028484079764761,-1.3379586459300246,1.701521122781132,-2.3493194945344889,-1.2717146038347527,-1.3895543136983137,0.46101702222753077,1.25740608947066,0.91343480680857148,-0.23616904592156795,1.1522263155165635,1.0444218784877,-1.1329926558641406,1.4654143316878714,0.94761362595571286,-0.13758890746346861,0.67652557825530202,-2.8194024661006463,-0.35751100510561717,-0.47220018501518118,0.15694892383564707,1.4250615881352786,-0.36209097184481903,-0.46472493632001666,0.84993582633444853,0.24051999160683241,0.44392874185228237,-0.65480699060459224,-0.36488809480741974,0.78889504296168744,-0.12907424071770582,1.9803935322427553,-0.55556330906974216,-0.11930500726760913,0.33091102942149581,1.4022892810506347,-0.69709501917985295,-1.247265662311718,0.28630681004448838,-0.021175371624830387,0.6504983982085164,0.80966800753707069,1.8221421468617445,-0.10658592218586752,0.33092770751646955,-0.43052366158770866,-1.0866402575522744,1.2950457190711995,0.52458230235743519,-2.2653904002969028,0.68535450899155836,-0.87847353783322268,-0.4644468096149133,-0.43998283381813946,-0.3768517587874658,0.043319458328619546,-1.2208796740743584,-0.42564965521938752,0.2631712060159252,-0.49269775667974136,0.8348275188922909,0.030348534071525948,0.564328856407324,-0.1949551942951723,1.8361002305597025,0.87370660426188596,0.28470478225617168,1.0960915092953398,0.50146299812347572,-0.1048683903083914,-0.079466032141737017,0.40758554213743026,0.57798523747710984,0.6650719937203583,-0.23886206619839234,-1.665240350298425,0.83957104669762539,0.68309900149868197,-1.377805542113727,0.08270898682150328,-0.28850176175827719,0.8676096447948185,0.29335241605487478,0.40074311217715014,0.55067628788304401,-0.021536667064716353,-0.53804763655286769,1.1216942744818261,1.2839832848358084,0.041455859684109315,0.34079215097619026,0.61239664771203695,0.41202163678125819,3.162240977771487,-0.39153543449331679,-0.32860899515605485,0.48244830228923463,-0.4313508048047951,2.5554083151936782,-0.69397731743610536,-0.031850350241087448,1.3767970164845671,-0.25138832792342425,-0.90071805826975004,-0.54222783161212906,0.31026494394092119,1.6827815700045885,-1.4717443930640883,2.2048338225376973,0.19975551578957793,1.189381179879786,0.56921542925097968,-0.5528327600219386,-0.83434174052510612,0.36640266331011273,-0.55753799286155259,-0.50311320851431363,-0.45852912479629326,0.1205305337041041,1.8605463282059078,1.5595627625579991,0.32730977955979801,0.41985109112141328,-0.64351805220001446,1.192920148430598,-0.91287082886650173,0.44632836980985113,-0.24390711980547491,-0.47585376384053246,-0.67901518830428542,2.166848828826879,-0.44949150786587633,0.22506481048966728,0.80689555741852526,-0.90730989388527084,0.86269054261531264,0.96443401853547994,0.63502991305699619,0.2247320172366559,-0.059897461854696556,-0.9430938710990483,-1.6273706030918358,-1.8591817335902794,1.0122608759391725,0.4169706444047927,0.68765804089800009,0.012660608285921511,1.6866053012247055,0.13404389673157133,0.55179892958240773,-2.8827053515774881,-2.0234314576559682,0.65619516779458065,-0.29794450068598627,-0.8933823054401594,0.69584403325716659,-1.7500163222885057,0.55228907501790814,-0.44682842475572415,1.3548688781938303,0.60377466030416893,0.70188043448536541,-2.154104058078167,0.064298100585324952,-0.066671570082325798,-0.26039744240425,0.24353247480187135,0.95219217258903777,0.39276466315689285,-1.8793859527228738,-1.0389374161383917,0.24870119991935177,-0.075487664586957465,-1.2684272954938707,0.29072918268694581,1.0636027763993439,-0.76792763252506191,1.160816679241264,-1.0510289807224313,1.4397309361842665,0.75379091804352538,-1.1510691225941785,0.23944541535893088,0.31645392563804042,-1.0726390500071028,0.47971125838504181,1.024638658259347,-1.4081428777799718,-1.3197704432955855,-0.4126824898024844,-0.50586056145355918,-0.67477993033332495,1.7450431060148111,0.019327556202616874,-0.64688586357274303,0.11382611348268827,0.10157224869609194,-0.083144791687428471,0.90167551000882185,1.0639685491669322,-0.20129350179170957,0.35901945462634072,0.22772533744719586,-1.024820061329839,-0.19824894617802249,-0.65033552485907609,1.2225468888369406,0.068124306468029444,0.50426391326452136,-0.036192654135208759,0.16050994311946409,0.4660010313317885,1.2940717394001313,-0.78489394370287613,-1.0400493078921227,0.69996552351147145,-0.48473488628070988,-0.30886096683089548,-0.43157805642300495,0.69325354672156125,1.6214903835905952,-0.40549012602521539,-0.96733804683711622,0.72125470857446372,0.99866804088143868,-0.097586062188002531,-0.33062873914771607,-0.46737681992888147,-0.57152222637862893,-0.27667093543559812,1.8465328573179673,-0.36430838109550528,0.87251513841888706,-0.68327353199126861,0.14563951315281504,0.33749671107414136,-0.086089492950802288,-0.65553605644229407,0.34385072999574584,-0.078976660087406517,-1.9630203054546469,-0.021885537797589723,0.8857694807210319,-0.96663065227325207,-1.567790144610832,-0.34305956909943564,-1.1309620582163664,1.5384464046624517,0.16149838761999419,-0.3465749921637129,0.66663935621122805,-0.69935203752441377,-1.6063791421329254,0.24721624109153484,1.1289427001314452,-0.31844478924356318,-0.76938073893017656,0.93369389430142635,-0.44847642500247498,0.2275870097087602,-1.4281694125318103,1.1276639894964702,0.66889822868301196,1.880707500680505,0.68097867380734345,0.14468019622305189,-0.13102987622869108,1.4793093610692194,-1.6836161281954192,-1.578100506432297,-0.35240988435184628,-1.8621820037330106,-0.31572710240976037,0.079879833784518753,1.379776239141451,0.31089520738488285,-0.04888363407183588,-1.4675920305429138,-1.0698783389750213,-0.83347630090103064,1.676292094442543,0.32867026688110895,-0.051913266811460065,-0.17850590923690626,-0.12436187666539852,0.1656050428345108,0.91058851732462753,0.12247437765701372,-0.059734073711144489,0.46278272253167763,-0.26118977753722622,-1.2111452907269169,-1.2047159175864575,-0.058312952042275275,-0.94745292922313651,1.513511919847182,0.07989582373813868,-0.62818819732177056,-0.23868808288680124,0.31082074484500022,0.42312928047858228,-0.099341060871235107,1.3019900616956166,0.27746671224770741,-1.1089895946701669,1.1922031627590393,0.47813876921384574,-0.65198760599479766,0.066043135733444197,-0.41863030652218963,-1.5581434877426183,1.9536813212537889,1.3221296049030158,-1.2992977324735853,-1.1162595339031751,-1.3652684043833767,-0.83635248285605801,-0.76768914107959263,1.0733447215130518,-1.77315512717713,0.39532937250882227,-0.28007245819214288,-0.45488269042569152,0.16901976961274873,-0.56803088329880458,-0.74278938581661014,0.28973506801713528,-0.79782181346310721,1.9429666489952733,0.53277811102433992,1.0608342585898156,0.078799069283948586,-0.94058819830038587,-0.40537775234031082,0.54411783420104065,1.4510128425708109,-0.70796819725727878,-2.0584582537934684,0.2113465369996555,-0.58896444617280941,-1.2193934440732195,-1.118514423224652,0.39908761499699968,-0.83406258857367865,-0.3327896490683635,-0.356828527445262,1.2124150765816464,-0.23724716448279665,-0.017090274880998634,-0.88980197394920568,-1.2923928764272994,-0.58418235893480086,0.65705264221925863,-1.4110422456129113,-1.074957188723116,1.3131048964923608,-0.79894102035466164,1.420895564759427,-0.72034691264582962,0.33031059482396002,-0.50129055665829736,-0.45488056220383805,0.24305190568307383,1.0974682368827546,0.19634060101186632,0.29950713572389243,-0.61609108893033748,-1.4080988952736315,-0.36678051166483921,-0.45340281796693394,0.091183843677911922,-0.57676323396743234,-0.3358716458272199,0.024076425800900657,-0.78986118176186793,-0.9714266654788335,0.38855500006617,0.42154333404673983,2.2025658646555666,-1.2290133342107759,0.55604792136529668,-1.2907919672868127,-0.68004743242764476,-0.045249440875826323,-0.23908263075520986,0.25015401905338269,1.2618666565650927,-0.80693339561506783,0.70665385734723063,0.14435914402448988,0.048263598952557066,1.6277721096166957,-0.83202386494417346,-0.30288271653820698,1.555615399444271,-0.85135091770789351,0.93950687891252638,-0.49274412819789765,-1.357788446769036,0.39023222759877307,-0.18585671808031692,-0.84954947625649813,0.77263741952249299,-0.77400335186929747,-0.20594067678835132,-0.09354429182172963,-0.091720721495501117,0.96427641926086727,-0.91885642690653568,-0.81391141463510241,2.6886524681084265,1.9561687091039393,-1.399169271142563,-0.2634147330947042,-0.7847489805935004,1.1031910787829633,0.53513895841084635,-1.2787744726651995,0.62588298147593413,2.103458042764355,-0.012874673375505102,0.076663539717967202,-2.0139226070341585,-0.56257602585831867,0.87062282113487899,0.059465613248607593,-2.0254956216430093,0.35377756300795848,0.27663874410048134,0.704747283473659,-0.35674546346811314,1.0638763344670559,0.64824651344059137,-1.534603016527927,-0.71142701351541116,0.56742834706825296,0.45782432686281205,-1.4989961214011571,-1.4048621128578902,0.061250875619827366,-0.71049630497740646,0.08055220051752475,1.1974168922735828,0.73299962344868141,-0.2366364253957923,0.71754280580190133,-0.66325367839126548,-0.31217543279619897,0.69092526466646054,-1.6635174730244351,0.60624826538473475,1.3154205257409408,0.60618068710452611,0.77466322772461071,-1.2374242347086435,-1.6571412239420553,0.5249445442400692,-0.76502559440771689,-0.3616265493972905,-0.289554932819656,-0.6656858712110465,1.2452902474148646,0.36915570477099496,-1.1593743043627494,0.92853803120997935,1.226743708749644,0.044402667746678608,-0.32515142711746731,0.49424099093991258,1.5985685405601953,0.68159499204843155,-0.48347574121186154,-0.13916101880127971,1.2505398466666071,-0.81141450208250399,-0.5630227739799305,-0.45887937640183041,0.003610213539753806,-0.048903336278425268,-0.040180050969435686,-1.0704277890322964,-0.27579921332716756,0.064897727873252695,0.021688543084474283,0.57617127515098998,-0.46138505115933881,1.7194028103845571,0.53950229992579835,0.77886524109502941,0.51492993109630669,-1.6358127981721327,-0.52700377148248223,-0.50782342729732688,0.48931135529002484,1.0451536030812767,-0.83096082888953138,0.20044981310224322,0.70018489521730198,1.1692866283899297,-1.1560591857825724,0.83671213000435263,0.20811471032226858,0.51272751964608831,-0.2030701936286749,-0.54916209910983893,-1.0767042259023871,-0.78843359047478301,-1.7026892600538976,0.0718043249584851,-1.5174304275253467,0.48966398226027313,1.4953916465309764,-0.18590413066227618,-0.44850752737343186,0.38073598105765116,0.37539003607384347,1.0922298030618423,-0.94127960743653072,-0.81062411594219219,-0.29937249343299627,0.71367081497310214,1.5177800700442685,-1.9373653303701934,0.76797880573273847,0.51853696514860403,0.94871024702389495,-0.96131907012409201,-0.17268438570458297,-0.60172871979093734,0.61390397180858081,0.58676084265736994,0.38214360977299766,1.1095126287946473,-0.16598117035788446,1.0156438426119787,-0.3342830794978508,0.18818526054450119,1.1215531338078812,0.76674944900122366,-0.59899936798242115,0.086556871383503278,0.34885881870235191,0.20566065223547331,-1.4414398862974909,0.15789379914049154,-2.0441102592432645,1.1913233518118134,1.5125530431288168,-0.7113214022863551,-0.1725629192395606,-0.54871070615831519,-0.13881776996859455,0.54305621926374181,-0.37998781775727714,-0.73018679262386976,-0.54772502384507127,0.45671198590973938,-0.61618510753929667,0.95744840074151205,-1.8194789458906471,-1.3342711226878678,0.45987343755109172,0.16775119035751268,-0.19351244784645497,-2.0276466723857678,0.64946089742041879,0.65798269081237559,0.71445152687507352,0.57336609793624849,-0.25684117822060792,0.063862338584510153,-1.504560557682443,1.0529477775132041,-0.6576841338924454,-0.71548890814132715,-1.010708475383137,-0.2625758022516102,-1.4264324793107388,-3.0063928188191547,1.5664737041583516,-1.2738509726649203,0.10350262204733755,0.34630392159154932,1.8858700429183621,1.1532895400713179,-0.35082466111821176,1.1061057610825951,-3.0910865053502561,2.7500702923790574,-1.3908690945508866,-0.55246869407681065,0.016702056349432969,1.3617624582735943,0.10037425533950542,-0.11102645038397671,-0.32093074035960634,-1.1037014115002883,-3.3609945383134301,0.64742691914319173,0.5464829474478764,0.15164054082791506,-2.3922664011548611,-0.64615859441057755,-0.39355641367925709,-0.43016818676785429,0.76087110007926773,0.85373915060304728,-0.17482537654483551,-0.13833167023872511,-1.2223237121310828,1.1361511724959228,-0.5135266596898358,-0.29095331400689606,0.3206301227510015,0.71222494391892965,-0.22784639464184006,0.40406391314619494,0.031524271860360428,1.0456302536430384,-0.6516358826145674,0.05561244219640369,0.37900717596618166,0.016831109796609491,0.014315948093881401,-0.77502778593258703,0.51412474486609927,0.46815654276782964,-0.82587130241024831,-0.95244547592406315,0.55033369193376636,-0.54559682002728049,-0.050626189602039691,-0.028300824354708525,1.3185656052026395,0.0835807736753892,-0.40771758108518674,1.1810562005531111,1.0847269239246577,-0.10942301376097009,0.89217186425359751,0.37016376584139238,0.91804918181786876,0.13562902166648411,0.28599659421342238,0.20668611713543034,-1.3101862523960466,-0.07037656077125673,0.020169887813649989,1.233618556529823,1.0448005314927733,-0.48996453740082718,-0.26527021594684885,-2.0986330077346462,0.45778561695067505,0.18349433630166104,0.82804760282895451,0.91124326499188357,1.3640880540559008,0.2987266230632607,0.05242140163187467,1.2059306024606153,-0.2038454541644662,0.41299946036420476,-1.411632315418254,2.5520540483977663,0.82149028691405857,-1.0207539654207272,0.72459661160981392,-0.6168683081363916,1.3466763752956366,-0.89008771700439582,-1.3541664264311433,-0.49473962156599621,0.21233747802788858,0.42899343451915334,1.1261365175904716,-0.77835255608242415,-0.42208161221043267,-1.874430609254464,-0.18335574697232604,-0.16856943130355925,-0.30074161192814092,-2.1501809637679599,-0.77191364189627187,-1.1496152506762569,0.39261396011789723,0.25559037646750821,0.17252351459148771,-0.58230134299730829,-0.00053595746379926645,1.5449769002615266,-1.0969449281475612,0.46812536349843342,-0.46814806486211408,0.059269118863894993,-0.28207496104880225,-0.78002081934933554,-0.23060247209259721,1.6353704053373392,2.0658106135181069,1.8465350017755413,-0.35849480096216269,0.29863185854073554,-0.50743797151126813,2.2661849596367509,-0.018781170972973254,-0.44248910337524089,-0.76996600403060533,0.70013984158085751,0.55071292413513784,0.31115338401762371,-0.42260265730814334,0.334358551653897,-0.258120411970446,0.25117343411737958,0.46989254564578559,0.93031075869871616,-0.1870441727285001,2.4192743303532809,1.0727484080289822,-0.27908025216283633,0.39956492607745631,-0.71782236157197998,0.40926634943852785,1.4020021508308764,0.91844513197291489,-1.5518839773242672,0.43581737422366196,0.77729257224564274,1.5421565770845385,-2.4625524477438461,-0.32166776427614846,-1.8116754562369541,0.84109592425540647,-1.3638990546927636,0.46531397216266823,0.16769601601978087,1.0699713411908067,-0.80912448477593057,-1.0207347642891043,-0.29715550192884865,1.4614645704358669,0.41640175959947029,-0.52807333904087905,2.0509954351753557,0.42470517350405629,-1.0205006963593264,0.2350059501770661,-0.77782069148583088,-1.3034616594464199,0.56544469270363218,0.16199376104693325,2.096969207914698,-0.55005327502787416,0.73240080627383997,0.11456045890589062,-1.0751723255473338,-0.98505292471073758,1.8437967716442303,-1.2620523357540703,-1.5789171526405179,-1.2330261267169444,-1.3058166779959426,-0.20536296180697594,0.32085561347479452,1.167506045157338,1.5273424652870089,-1.1994320356508008,0.708317805277902,0.60985264306333931,0.45326415284681676,-1.2063843123168141,-2.6744107618687791,-0.40909020676618663,-0.059077495002680315,1.380807104026829,-0.96531033559154855,-0.1143479510919992,-0.28349451746127791,-1.098003836720183,1.3230583262434457,-0.029908839243727399,-0.055383794325009297,-1.2684130028644494,-0.97279002507651191,-0.6029925158829923,-1.673160016237039,-0.0011183979527119036,0.7921122825814948,-0.22229647967428737,0.55448079984333232,0.84399659834912677,-1.6460821524454115,0.36656605888347543,1.0030039466997687,-0.32368384326314142,1.3639315434213648,1.3788764122980615,-0.78657337986703046,-0.05750273057869814,0.21937568810804026,-0.050068399425684099,-0.26155371968680019,-0.86933778982982279,-0.83831657491159262,-1.2532331992221126,-0.46311840134626919,-0.34795272004505057,0.81799490374628792,0.55438601858308156,2.1598038512960027,1.0888059940999879,-0.67148710672071243,-0.66394418688128243,-1.1639647076407595,1.8918274842107128,0.7543254955338804,1.641124069279982,1.4849774040660422,-0.63752561411870723,-0.78886901806694876,0.5700447482103147,-0.37393370040071655,0.47254955924124648,2.2680549741825233,-0.75807507066755819,-0.43165994904130145,0.3452264256589691,0.68525410681689869,0.2345110461937247,0.09847081149690344,-1.109571735712567,-0.15703625244289829,-1.2986178722526029,-0.018149268768537209,0.60642399773168465,0.079601647768081665,0.64795869448171783,-0.64579602228244548,1.9206875834267434,0.5909030651729178,-1.0159057233603899,0.70362769305764372,0.3143028939396964,0.92466320915804323,-0.36358270186185748,0.079778856833312511,0.95635927000379906,-0.37584505328684048,-1.2232758754573276,-0.021204848647064546,1.2030637982140264,-2.5244656512303818,-0.54870807819098377,1.5349452772014893,-0.54178649670619172,-1.3131686307023998,0.96908585915126622,-0.90073653119992703,0.92175724546190918,-0.30688583879334663,1.373532943123235,0.59541488784021757,0.24167674159880714,0.050954308556220192,1.0875560013262182,0.76358951397424413,-0.68951962403165046,1.9666027263207473,0.22783286535969535,-0.6083912300886497,-2.3051497472977345,-0.54115860577292574,0.61369075409104878,-1.4754071028060016,-0.65990012932618025,-0.30141985461790111,-0.15467530055348264,-1.2796751017220895,0.23233531587585918,0.54316944561380676,0.014790127369964089,-0.89638849173885959,1.0487894604187482,1.1563878292953342,-0.2636513436869814,0.44141244225358939,1.7084601537231023,-0.27747011874772004,-2.3989916888061562,-0.43545225568200857,0.37078880233237593,-0.7140807125298787,-1.1249271470446791,0.87351311550847921,-0.90418930741896297,-0.67916600474510436,-0.19072320874733756,0.12301338195860431,0.064361173530464777,2.3778085672048359,-0.8457161285378062,-1.7718160162695926,-2.8898902049455972,0.97754484223065308,-2.334966119296483,-2.7555016979735134,-1.1998291310343867,0.8269418708078683,-0.084828022277827292,-0.26690505012084498,-0.99199529744606918,-1.2782487453382234,0.99646400584894868,0.32381384575472577,-2.3702487321922692,-1.2577155945137859,-0.67052973240215241,-1.7411844721174208,0.82748263390627097,1.0908480176903923,0.54443800474463266,-1.4584488822972768,-0.23728722058300522,0.21028344577080857,0.69005589359704256,-0.64962268082312924,1.4158157780108942,-0.20308367598322635,-2.0370064506763095,0.02346780880739651,0.49765953383023853,-0.17681223322799075,-0.5561026445617302,1.8478859421631677,-1.224512620757529,2.3002663622857207,0.89413102490414742,0.15892116919875213,-1.0765420141533726,0.10501726266166238,0.83390091573959491,-0.93606151265340276,-0.29088715645732799,1.4313619828109552,-0.70310120933454678,-0.86331325719800112,1.9902255672265923,-0.23727246729855039,1.2656213072977638,0.98885895668001755,-0.35902092973584471,0.48016677101396454,0.41556056701862876
