-1.2531440893948211,-2.1765029576369788,-1.2797214917600157,-0.74610473733778504,0.14679492413000478,2.8488708495389052,-1.2693091680361503,-0.28396840139914986,-1.9658774050693093,1.5668815165982437,0.57717257264564603,-0.29248363044426312,1.1144878217738219,-0.19043578621109714,0.2472342118237956,0.67845401159177143,-1.2295288250418781,1.8641918203995114,1.1129973683779697,0.80187567972252261,-0.41178100079700414,-1.1432626588899251,0.64869487644950585,-0.86625345952776789,-0.9518319826663173,-0.76351128555077097,-0.53105833025800708,-0.20482291823499338,-0.48555757121699578,-1.2020483435781009,-1.2065166736252475,0.35509005212098699,1.0476668276263172,-1.9892155512968579,0.11326350711824491,0.63077087322393255,0.17102642751862321,0.66331266027135927,-0.17562444920857787,1.1173337939554873,-0.26995992189078988,-0.83122155094941996,-0.45986636583055923,0.19521662394088965,-0.1962576343295418,0.92117894250544941,1.5730112047184934,-0.26907899669858532,-2.364786405030908,0.60480993066881727,-3.2863409367066363,-0.31143889011964165,-0.58513315252950893,2.8899843105354521,-1.0302578769086503,-0.27287541280761357,-0.26759795517779295,-0.095380136434072268,-0.86374536418728887,0.25964647863835405,1.7421395259490098,0.14242564410947955,-0.90777715905049072,-0.13147643566972986,-0.43145295369990105,-1.3750620533426623,0.18779653408938193,-0.011763932923649528,-0.89062982320219475,0.15057839495411809,1.6574737204354755,1.7226481262862956,1.4557718390904613,0.74230039678533422,-0.055192083250412291,-0.22272583252289649,-1.4138864613600517,-0.38650732648030667,0.57957826740065677,-0.27226902546237325,-2.8300535064695587,0.13180071585920297,-0.14906165441159069,0.13875002215074575,0.49108519679223972,0.13040260558699721,-0.15647517269241576,0.011908826797038913,-1.1887785806867768,-1.1263313533929669,0.57736675955747108,-1.4704063248175436,-0.46476018855777762,0.10000022342954812,1.6370945668749946,-0.39363973940756158,2.1076748332351123,-0.45278360736182216,1.3173995037460116,1.8679078669614664,-0.073549145789684856,0.72888369250944429,0.89698032353349511,2.0487360976064508,-0.29088728126115565,-0.61334761966661011,-0.98904323839581476,0.67936582842591398,1.2665631231743346,-1.2954865882766435,-1.8755070587570093,-0.047215829478806162,0.056063401530163919,1.363393188151264,-0.66000694844670094,1.8074707806645409,-0.48617813725150405,0.8657390138626897,0.29498073552562798,0.29941282610651787,-0.36155454304443257,-0.50267119779162761,-0.45245985737632122,2.1277477706482824,-0.61512639877369846,-0.75149717003632899,-2.4913259176923743,-0.07305799665534872,1.2288661309830999,-0.24121437014419125,-0.41662512003075319,-1.8183722187344202,0.50021893660311634,-0.29984248010273684,-0.85580593849162256,0.59068213799459501,2.3701579719301469,-1.1282422104213659,-1.4837269742246668,2.8604653495687509,-0.24828634188494114,-0.23606558585276546,0.067018105070763015,-1.1132219703430415,1.0244725480133281,1.7680889169712222,0.28766963460406492,-0.75400048005994058,0.20406754559282494,-0.45388367843648236,0.68124567546906922,-0.29981045927975331,-0.26703210021081614,0.60169584036293744,0.094663347535783857,-2.1167483760382124,2.0055136087419454,0.077560250295400854,-1.148321668476842,-0.19930223439048822,-0.12965991381558914,-1.1174321565453704,0.16460913813926251,0.21886572588264436,-1.8820153132268922,0.36987909039717243,0.0991162342484493,1.7382951264199564,0.19813320770006321,0.060118039173721771,0.081879191376500446,1.3066583509419079,1.3480540330483108,1.4996597755982588,0.22205306463973523,0.83477324898185457,-0.13743884846687013,0.10253246964206054,-0.9203810997389944,-1.1271612060388572,0.72124291264014284,-1.1065690268910189,-0.14276854762153257,-1.5411644179768584,0.58990291292754937,0.28181683429163507,-1.7979247794801136,0.4948005704817327,0.75398935323777849,-0.72865148013221837,-1.3658963149220373,0.53936040596255452,-0.90401382111622386,-0.77943456738924011,0.01841672543771105,0.28995160955953897,-1.0579947526276143,1.504385546062496,0.32058542069478235,-0.21245853347230195,0.38947105695640172,0.88603909259714742,0.350534569874762,-0.11280841661969804,0.15887770820548622,-0.52523679069750195,1.9431921075841265,-0.63884905780384849,-0.38271517070220051,-0.16794131853061534,-1.3940372528929057,1.0031203050516078,-1.059791056721612,0.58630571981817081,1.4563581099997798,1.4544574602716174,2.3075618234984856,0.60143744286133594,-0.56742004125934897,-0.56402624917324862,-0.16391751545948338,0.27520292804042362,-1.1908006184521729,0.19436358849368629,0.35356666636839307,-0.70871718190166832,0.082859485779477104,0.44888169822476048,0.34368365893920627,0.89687299834965173,0.98072605274310698,1.0182482561687858,1.7585529027506122,-0.98037557763339389,1.3495898820532588,-0.16488941107383304,0.27354179416100094,0.33157550702523886,-0.027844372444869703,1.8682434761217488,0.80966863669632116,-0.59623130698025073,0.9168520464576666,-0.37307181991052668,-0.45458507044389707,-0.80491875555081915,-0.26676500946372467,2.5008506858710691,0.34351053559780875,-1.0858879971265192,0.50494450708826122,0.65949501387167775,0.75708459730620181,-0.25631433754755617,-0.85416453990208296,-0.26590767524379783,0.66552463883992241,0.44805012878126771,0.38796793585083578,-0.32730082795135246,0.65281174606652259,1.1525287731381395,0.16742055195956157,0.98041573422886497,-1.2362575754247407,-0.65678297491941573,0.51026754241839567,-0.030114866140066608,-0.078391925104444482,-1.2575880525913403,-0.88857584989999949,0.29228147485892969,-0.66567362474718228,-1.028054440815688,0.29205626742608209,-0.083960854149894293,-0.99946730754788715,-1.0627331647455809,-0.15959689191451296,1.4850443877117354,-0.31238092074462531,0.34955502034468922,-0.24391113366480757,0.60673311903216021,0.12752922618840185,-0.30369895673674119,-0.46575258452766988,0.75073766943734199,0.73015975809368472,-0.79627189307328206,-1.036505573883306,2.3807091083615481,0.20586931039543355,-0.42522835062765918,0.7676688914151435,-0.41981948613609871,0.11037541418607105,-1.2489531229270392,0.054632342477891303,1.435165423594432,-0.050601395783960133,-0.24399430685197335,-0.88007457063943839,-0.99902258745066885,-0.3327673451917782,0.63195833772480803,0.74515008673301764,-0.45755973133479494,-0.61420311013264428,1.11342579672674,0.72413682152767489,0.7952507021414924,-0.42411610670940258,-0.47354850491238759,2.1168523682181348,-0.29746452444566235,-0.24921747766767743,0.68244358168359676,3.2821441960273603,0.50628215102531837,0.56331361479415543,0.0073715783054800277,-0.04663005000763374,-1.6369303976925957,1.1637183789734917,-0.097611593689095694,-0.057991926319622598,-1.2137601043491688,1.0887357655351317,0.21663559351367126,0.41317194134862295,1.0081051544798763,0.030302645238437006,-0.65102673205868433,2.6009276502857923,-0.80324330959491907,-2.718494990391052,0.025720878947401382,0.58166609526717783,0.3223580416106952,1.3012037952348703,0.16181274207645352,0.91084712883238328,0.087669522026873795,-1.103938276654862,0.72049804626361635,-0.90910061243686957,0.21460134355914659,-0.17297313216370291,0.6314887980282935,-2.5109299176249742,-0.078675323069792399,0.75923460595762149,-1.8334804296394429,-2.8178202867711999,-1.1572169900795781,-0.96875401031769215,0.17481685684905401,-0.52761967588901626,-0.75212628424011985,-0.10358332163944955,1.0573385122178354,-0.61227762178062872,0.95403879639065181,0.12543367774978828,0.39153295389840553,0.79110753972912862,1.5117405608703349,1.7008781111731861,0.93571162185302736,-0.11385843983256035,0.2602076068925781,0.031020669454759103,0.43439294822446201,-0.95104544534783519,0.84322809795701881,-0.05553138502145398,1.4805970233172776,0.32948635700609963,-0.072280033315667375,-0.90347285156582047,0.67757751331495009,0.82384737569726496,1.1008778868385232,-2.8404599986526615,1.6965845594052753,-1.2750715403874489,-1.0695591838311449,-0.37062633261193811,-0.33410071164161581,-0.3754861680781385,-2.1626735453495209,-1.4268891944848692,-0.96950468385173028,-0.40614396785891199,0.21084336569017334,-2.1558969817161371,-0.51142248693671066,-0.52870485855522376,0.68929042248037842,0.30015963905452459,-1.3211264798849447,1.34170349920459,0.50257944094008322,-1.4287862031513947,-1.2904366034640182,0.56118312630621137,-0.35537324713768376,-0.38947300983538397,0.10351809555149566,-1.314751608541141,0.45747652951792711,1.6327867700235632,0.33373760705452082,0.46971977358650813,2.1497111895518501,0.080386365319578185,0.80747039629063433,-0.18431706841849876,-0.8931627953350223,1.6797567684384931,0.039913930994744377,0.68208557599473385,1.0492233082268778,0.69265212249554919,-1.2437630617163997,1.2462478245071691,-0.50696106482959447,0.70513605020867487,-0.77596871435266912,-0.29656501877075431,-1.5993518742395378,-0.10839094986894122,-0.91733191366892763,0.34606225567396709,0.99826450696551494,1.3270717917707426,0.67916066137962383,-0.47175367125995815,-1.2416187925866267,-0.065420955260238417,0.4701061420674072,-1.1351505813631031,-2.0155795688722073,-0.66177571802372404,0.1305003785550482,-0.17093728751120554,2.1604646509867376,-1.3917558250745881,-1.8352903328690375,0.84692407771172895,0.88574241165066658,-0.31328605096982276,1.1432443079540122,-0.85713987211047638,0.79197301623248773,-0.55241903846173335,1.1011771307507068,0.14457036937956344,-0.015608852923076377,-0.11023437339706112,-0.33948046327419024,-0.79912472811532231,0.039259868131659041,-0.021491323365890207,0.093828490219264163,-0.31914873100371993,-0.47349146807557396,-1.3044247358753986,0.22964051895426182,-1.0571243646504993,-0.43894307832258939,-0.17574459628697231,-0.0075312090884072126,-0.50303826940043228,0.5848780003931634,2.3922453194488513,1.7072577470958343,-1.3083501537299689,-0.57096852623049865,0.24158967472480658,1.6207478039266523,-0.32048425419262544,0.2754596043264152,0.7368010610021184,-1.3524978082987533,-0.25597510172550098,1.2539902697125191,-0.11085552404493118,-0.92727658104046073,-0.80725515288620386,0.5619112164025506,-1.2075385010056163,0.17112587528876469,-0.51013635435701232,-0.39723373445609561,0.06402886636785618,-1.0151188942127931,0.27456005886605661,-1.0876641291706537,-0.29851650018372822,0.018410168637644081,-1.0847141739604538,0.67096882146640335,-0.65900743851245469,0.70313902550286111,-0.16906333778688842,0.76321902121394258,0.43444033323232667,-0.66637724652003583,1.4902441689500667,-1.9825152230093894,0.97087015669067867,0.3996876167655794,-1.6269880798424929,0.30803922419436996,-1.5907584299039317,-1.6031641174671865,-0.052801822603639977,0.9449189510867626,-1.2291998011189729,-0.13389656794040827,-0.24681896368127421,0.43973056222322016,0.73637422269850683,0.39850914746001842,-3.3087420638102572,-1.8552411015025765,1.5286119195146208,1.7056420642053178,0.087088092394081759,-1.485583584528142,2.2079194247759864,-0.89107590356920563,0.35985227242145079,0.38641670141116419,0.58851765032648573,-0.63108755827902208,0.074558529066429569,0.012460591372577851,0.81779419091585759,0.40580084955799572,-0.81247401924645579,2.4158540784659341,0.58811406070255312,-0.61610155644999798,0.18156942212922247,1.0974009956704525,0.042508292701405846,0.27925757088740422,1.7198756109097588,-1.3697003693539349,1.0026477119041697,-0.39440247923935723,-2.5953462166564676,-0.29360730503407856,0.041260821852564633,-0.14130266905159414,-0.18565679101719068,0.24081001055190543,1.6145907782292401,0.35550439918689436,-0.066007719384908126,-1.4240171432573605,-0.84699046349281215,0.20168726003975007,0.3088139999886032,-0.5834709100084392,0.44662276706402704,0.32504964609211046,0.90054350020003893,-0.35497680982678459,-0.94895525645638223,0.76312928289158777,1.6557054615185629,-0.96044271667272607,1.2299995135928561,-0.97210354669173782,1.1446903050786479,0.67633695408512184,-1.253790363417115,0.74780603028569026,0.28745203388728768,-0.17448881030718075,-0.91719658160518913,-1.2416035681650288,0.99702877706866133,0.47553786202611886,-0.037499231250690344,-1.4519993377691036,0.20165529033515228,-0.56055401357691448,0.36775211170511679,-0.34752229659063588,-1.1723775058483807,-0.9474210546021743,0.26849850861360997,0.73311135274653472,-0.025770632466888595,2.4339345241979844,-1.0669193392957106,0.37202042471065072,0.043072448515468494,0.5367882981675417,0.31665431352907814,-2.9930295218060006,-2.5513103965542032,2.2047813825789717,-1.4916429616344875,0.64252401924785196,-1.6126121551170312,-0.63210586800296586,0.20144990350305972,-1.2962260515367208,-1.7322883833982821,0.7549128362062395,0.34914675445018156,-0.33423025443635757,0.54901503728660728,-1.7777974393517895,0.57815238394773194,-1.655363839229524,-0.49116382245106738,-0.14050603546475754,-0.88152142496713015,-1.0323139581954051,-0.06518024664983775,-0.16668438445702743,-0.4271774203147497,0.6437694637901159,-0.44794582593825483,-0.35261385496859471,-0.069619446539984101,1.7786023019339445,1.8307911127187013,-0.71738535223080435,-2.1058227311188609,-0.78563947731430672,0.63925473357178264,2.1388261792009642,0.32367646777742271,-0.31995867965863728,0.23151043793781062,0.49009792955755799,1.0800502764598447,0.4075145611565229,0.37237800493584111,0.59695672427464574,0.87073660188657709,0.82272169370332904,-0.16554512703392413,-0.62650822000271855,-0.097496046865834587,1.1576644396602156,-0.9250534808126275,0.61223510493971844,-0.065942540518053441,-1.2395063869327017,0.28014529480410288,2.8499587088691389,-1.5166497385562387,-0.47158153975430139,-0.22286438263390435,1.0030826410015659,0.6997752953827856,0.97687429360965738,-0.7491844548686597,0.70692208555020486,-1.44866871072202,-0.73424781067250167,-1.1887828952189949,1.224422041653995,-0.72714891209015975,-0.32355527853041777,0.48769317486447783,0.58078375571878793,0.20451249361984752,-0.36230474478714847,0.047015394457745309,-1.6031714208027794,0.02308683292904623,-1.7850792717137678,0.0098285386923515766,-0.54960661095094843,0.38920001855817238,-0.7478716841098475,0.44327304216571461,-2.8839718599593582,-1.9809191710138205,-1.2358491063093413,-0.95673279907753284,0.88409583502532918,0.41256481442183696,0.36351007287481479,0.7206471962197013,-0.64874115211791661,-0.73704612014135551,-1.1048174920001563,1.9086786163456211,-2.1104919138796481,1.9555147275163201,0.227341870306699,-0.353183613446793,-0.018000385743729853,0.66672786825448527,1.1131350198483907,-0.81693007566026732,-0.62254566254500865,0.50795977044989682,0.0020774664352615495,-1.5764671195693787,-0.19586246761366907,-0.27928081862522347,-0.91786144105485334,0.20927946714050696,0.93018488960878865,0.99658036908080572,-1.5762356086504239,0.5978090314800667,1.266201279696771,-0.39097062653628634,2.3887194605280482,0.51697995127307761,-0.56945827913317149,-0.54835456582033015,-2.4262902156075965,-0.5936293236791893,-0.24479397919299506,0.91931610940728958,0.35465722710370662,0.67742339593886958,0.69343912270794583,-1.0298802814940096,-0.3185769759637429,0.27156987264489862,-1.4377418696652027,-1.6457041330218085,0.06763137058797053,0.28413973907504059,-0.59283875491665017,-0.56660518702960605,0.38246416722321408,0.90947269928684982,0.6497486538704198,-0.052611327785040123,-0.13707548173663597,2.4521448578487792,-0.14211136608495614,1.2242041295450781,-0.4291443895316629,-0.53877094212599796,0.75512705295058491,-0.1473227881044995,-1.7551145224888356,-0.31550832602099377,-0.16013155974687585,-1.0227491813774412,0.41882691833487629,-1.4758798899111834,-0.11721129653146796,0.042391802024228445,0.39816095273215069,-1.1776938678438846,0.33794210297008903,-0.12345768029610502,-0.57878530758600666,0.12156512543922143,1.6124637396422856,-0.2571615466708882,1.7882530376744934,-0.58314719647221147,-0.58333981931260337,-1.900393037099338,0.043609856286974176,1.1724960048149111,0.80540762923167575,0.74518425434357394,-0.48484014083231414,0.088617855018220726,-1.012738745798798,-0.05624769902331922,-0.42394576842334508,0.019715425002245417,0.95194375464032877,1.3983595600523604,-1.126813549407361,1.0108922084123686,-0.63032245525882014,1.6848769365114247,0.35291851020830362,-0.9654318136146347,0.48963614849886028,-1.2878035069326212,2.0488844442788428,-0.73071354925301102,0.75307425111485049,-0.99379736952675224,0.14719934411752161,1.7460112442842795,0.65335828590563494,-0.60486171873883132,1.0005108166675492,1.0465294716270312,2.123034110389511,0.59702169463688159,-0.51799898792953947,-0.94036574592199185,-1.0888574079947935,0.24549468597787627,1.3293313054483309,0.31843945920990213,-0.63088492689119657,0.97798977141372279,0.16496831235516354,-1.0659433695397684,0.79773119985745089,-0.87529991074144431,-0.2455523130624202,-0.25649281320458578,0.23157878173025936,0.57270663642137665,-1.42410860054658,2.1607964539972615,-0.64039393359455232,0.50865264986787562,0.041753206554677048,0.33943039372492834,-1.098642090927342,-0.50950618380519042,0.14062575030997848,0.90988772397168272,-1.4786783410108011,-0.87736548073724885,0.4773828098882999,-0.43717573402739407,0.71435912766782939,-0.9135627435864323,-0.57483555378568429,-0.61630083624741649,0.19419209793411432,0.99804725745642842,-1.8867502870130402,-0.23138857153293943,0.79703442521071854,-0.8353172511095327,0.8139918644741484,0.11190297805248035,-0.35722267419948406,2.0328127954255439,0.39678635733293977,0.0086725998311769394,0.87222782465719573,-2.0387795861422044,1.0877173260906474,-1.0133999463373806,0.40829711451203504,1.4900560799946376,-0.56289344520433759,0.46474997817852542,-0.82912707652005424,-1.0591817042961666,-2.1509872676401902,-0.13919079198315448,0.1210054481996167,0.39122224926198645,-1.0374661933862168,1.024927607830499,-1.528797839434997,0.038775252529498545,-1.8709736929535099,0.85753109546038842,1.9364082044098523,0.30310164380316851,0.0047878662486818963,-0.18601349524398228,1.1966774508323796,-0.39708884210218143,-0.55557776707660833,-0.5814772369423381,-1.0742826377549632,-0.4185224463314125,1.0127836345366481,-0.054375196458000936,-0.11781951333651645,-0.16128874999196072,-0.21687266543757786,0.45207305089895894,-1.2658470289750705,0.76247701358742281,1.1572372999309035,0.1162047699136558,1.5785785157777876,-0.36916435719618407,-1.5067276744742906,0.19087187735221486,1.4750421242382445,-0.10656252736937423,1.6388703352438194,0.35868170849499037,1.0368285069206029,-1.5485154396784881,-0.98847303139372589,1.0484366612657263,-0.63998679005538361,-2.0193223669608531,-0.6279772734799689,-0.76830080531756584,-0.39819150310389206,0.042697723141113579,-2.189997942795388,-1.8319785315582533,-0.30188355121506327,-0.12951686103352283,0.6935476266939733,1.0584638870004257,-0.86233238533983825,-0.5233652597162507,1.8571152755584237,2.5800917764312095,-0.99552709991578991,-0.31406398862866969,-0.88411422960029618,0.17799367675126032,-1.8720728166712906,-0.44776648435647992,-0.75613519512914829,0.1704404060405911,-2.4579277342622978,0.0035392358069652676,0.40132725883567916,0.3255563755118237,-0.20977904735593625,0.07993149510559372,0.1982259061963956,1.9285539528848339,1.8262808826517645,-1.4945290031745346,-2.314450613435918,0.27446785494526266,0.45462921780032772,-1.061445562767527,-0.085603457325962487,1.3523995251572725,1.1196130543722835,0.34931019157815507,0.089839287225023073,0.44901000807718311,0.39833778555173949,1.0088236144032705,0.73331847702465436,1.9219950183140579,0.646682491544183,-0.22957291707142358,1.4006664957320849,-2.2924271334124109,-0.44696389201742337,1.5190163192486039,0.085378904848679563,-0.048558091615463851,-0.42641181113704751,0.18903498722387072,0.61406738582073228,0.40083669665378746,0.059763836621141181,-0.47543917848961764,1.9117989645861657,-0.38789651968494238,-2.7158964350543604,-1.3997907513667187,0.52479732964130277,-0.41949659596025896,-0.746829341297362,1.4022567858958936,1.1466601271816788,-0.3453474051450991,0.55506102841446336,2.0430527446285236,-0.965201453402042,-2.6189520479775696,-0.22472345428193671,-0.43033754015095227,-2.3664185898540291,-1.683650040892235,-1.819888554083491,1.4323786203017315,2.2418939472788075,-1.8874789553287024,1.4942703351533078,0.043182173622797838,0.93307356611872727,-1.0231976462929804,0.64731681207449931,0.013529919674047064,0.043735932230446979,-0.74933433279640782,-0.88763952666650714,0.75634066391805921,0.33289106045305372,1.2386273754532728,-0.13953745490338923,-0.092858515158757468,-0.25155502617464776,0.82991170012455751,-0.5379385258138949,0.36360303892469331,1.0798933334077701,0.74087233363978622,-1.4124158810849676,0.11916887671894084,-0.48723388821754055,-1.2170569324798288,-0.16010426229138267,0.25438929616477868,0.18947045187434386,1.1365480246252488,0.99900370710064013,-1.5811464809346043,2.2863906134362888,0.42555322166643705,-1.6410014318577695,1.2494952280539984,0.016907817049757939,1.2198783334926355,-0.35705424658372059,0.53839600482170125,-0.033997816571034199,-0.62844391534314492,2.0870098139524798,1.004572483154474,1.836536883489853,0.11226465547210407,-0.79839797586442274,-0.8569863085753876,0.16590589775308154,1.4558497460660282,-0.018615824689146323,0.90112504401349725,-2.0537112240538717,-2.6452609043605015,-0.4502565877663986,0.60670084573454508,-0.027858955559559653,1.8841037085398549,0.28297394665068293,-1.0274371253506314,2.9726358018687407,0.90107566336032618,-1.2908063145550632,0.89076535133089352,0.35782647148936614,0.91384454618605593,-1.6019744196088144,0.52021702499920963,-1.1477806127222974,-1.5988827663752461,1.0240062785420045,0.25390290071309263,1.4179527022068381,0.33148169473767081,0.5110129230611109,-1.056912335136144,0.11808446870899249,0.11132135939891485,-0.51441778494441726,1.6050626752092241,0.54063020699025011,-0.036281144213995906,0.40319247798848401,-1.257926154339323,1.183387884432179,0.85584775931711532,2.1017823136563774,-1.5803580058965867,1.2269399729997512,-1.097989188072988,-0.9012038083789361,-1.1518073967619482,0.69241595117677979,0.69710617595552304,1.5604458601616076,0.21830186363674231,0.43225493007749349,1.0825447389119935,-0.68089759852631127,0.049088956418844323,0.75334969928700224,0.34432694442105716,0.43319465909344773,-0.17887485940171333,0.31428603629654905,0.54111862865783622,0.53777940015999426,0.10428135480574645,-1.9495941563695958,-0.26542200944432737,2.2865848455075741,-0.69892476011490212,0.95577178717716138,-0.24438367301660527,2.095583600791306,-2.4171587300237074,-0.69429796969257418,0.24848136920645619,-1.4313492415868838,-0.45717568097076672,-1.2287426862430881,0.26953023421885391,-0.41712945623640824,0.15549402803560597,0.69222722469761,-1.9190238889350246,0.44053811414013272,-1.6425684975710559,-1.4661547919531837,-0.48602469866066889,-0.34076511138327026,1.3073475004635,-1.9658474083322117,1.1521309402972724,-0.94405019697039194,0.93465135951719258,0.45526525834064685,-0.11575718355157898,-0.32020609556524071,0.036456946927111399,-1.6948481110624269,1.0244320499858015,-0.50968827848252263,0.063199171053663933,-0.84059204569868695,-1.2727203913114182,-0.40155154057718173,-0.065056961451443518,-1.2999146909042985,0.14891380601546197,1.723844120538055,-0.48505403880257186,-0.4192529596840141,-0.44276686463476844,0.57572717927664818,0.6042233693796577,-0.36485805492049328,0.94265565629263504,0.82412413842724141,0.076588938979881185,-0.35694908942366804,0.53101926273493349,-0.71583000012082743,2.6682072562099708,1.5161436260944179,1.0908418456716868,0.63078021277481444,-1.8310075519253557,-1.0290982028531188,0.061341533400221616,0.20010376751594972,2.0284853125140034,0.51950631015417714,0.48214529707375064,-1.2637884283541219,1.889571824569426,0.6379498085791393,-0.41326268287918821,-0.52015071229610188,0.065672729801906263,-1.2079393070719298,-1.3034043475329116,0.11006585479114621,0.67021567261385329,0.34007584244611117,-0.78849255772774507,0.090581205461769149,-0.82344570216319168,0.0081940126164506532,0.20263170399191474,0.99018800604044688,-0.16538036633971878,-0.15504608867979447,-1.3393418977778675,-0.53646950358462075,-0.41825888847156423,-1.9032577877959327,0.16409999720991103,0.34013080975156329,-0.65052822800707766,-0.60847701739929638,0.24322930718688388,-0.80629227786355939,-0.63970396085078085,-1.2923987405294555,0.42687682100837288,-0.93628358721092808,0.19577755127881152,1.8345526174532003,1.8177698941744138,-1.0269119765803285,-0.55379126492646213,1.2490427081605406,0.86192325168021999,-0.15254249611391396,-0.95459494845094306,-0.41492897474286466,1.5030384409053572,-0.67871375890218022,-1.1616190209024277,-0.0043813605433881365,-0.58194715506237726,-0.62122552250147034,-1.305340859588763,-0.79520467852180665,0.32068790364334543,0.95837552948332072,-0.26615067076677845,0.93528579176374804,-0.15103588650816838,2.1077602414977994,-0.36621804325683371,-0.0088218979300041574,-0.044986234104332688,-0.3365508326156102,0.29812392215379452,0.89017694967267247,1.6524959315878482,0.64596684190408049,0.63314786007063073,-0.21401911852437433,-0.93562210900049703,-0.23670691383795434,-1.3484375695486199,-0.91640709335394355,-0.7821723751727625,0.47576149127578693,1.05121751925384,1.0847369598553338,1.1071795936279736,0.84184755170453729,1.1709064941967893,0.17571241661037296,0.10141645922384529,-0.966580831525089,1.2130302019782209,-0.015688697347720455,0.45997264094710028,0.84223982228662153,-0.13316562627011216,-1.4480464297645217,-0.96885608224848552,0.24760533869273532,0.7078246512810521,-0.60277452487368677,-0.92487892752186451,-0.028450224147986713,-0.27208714100351794,0.29917438759299175,0.94510122894985094,2.5350455096735116,0.94168103587065144,1.0235586655915301,2.3002943989341644,-1.0359677314407461,-1.5598388856446739,0.48543629234930086,0.82299629939726182,-3.0759061491878286,-0.87841623297550342,0.63604115342480005,-0.80348949653765633,-1.6330643272038914,0.71953985368262507,0.26015473806432599,0.31827787014369857,-0.48311827820604014,2.4212098949538792,-0.088672821303211746,-0.60318204639739692,1.8534292130153482,0.84005834235853272,-1.042871896489751,-1.5837471495873185,-1.2854955985099237,-1.1561371612724389,0.16098300418710518,-0.14538353563053039,1.4820014801509063,-0.11130010557033718,1.416432731555971,2.0642191742844433,0.99228104710176779,0.46617940502646293,0.40988579329016539,-3.4532024170154298,-0.73670592271995183,-0.17758780416080819,-1.8531133102096602,1.5316119694096073,-0.79619509681790579,0.056419199615959453,-0.16743271574769333,-0.94901955143029104,-0.21280582990790997,-0.18383055137343265,0.86856348766557179,-0.38084982431770759,0.049468541422093462,-1.657129151332154,-0.14235991503988638,-1.027021234207639,-1.5977659727504454,0.41610468437842052,-0.43029342293272943,0.87063933519679437,-0.53826170415885466,-1.1216447976672492,0.71309119371344987,2.7678619756206291,-2.5249184670012754,0.036654011942197674,0.50029723514628821,-1.0370111718393553,0.56832435300681916,-1.7048661445005051,0.69656772702792369,-0.089715170582094383,1.0750221503203836,-0.34607467801968095,-0.024790891899285128,0.0098426482489787845,-1.3240122203342353,0.93199608414626367,-1.243210114809558,-0.66244137476425602,1.5013812419795087,-1.3248620731575447,0.74218973972288749,-0.74319070028029055,-2.5958457276691194,1.0995112573409696,2.076302961652754,-1.1119071485191352,0.63180258960864699,0.13467006713805246,-0.098308273308435862,-1.1909292635287376,0.980972506407642,-0.81637102723640431,-1.3157946847433446,-0.12867323205992082,0.37730282424066935,-0.50545987590136776,0.16875030123354701,-1.791468156898852,-0.57510835749978451,1.1094998048524662,0.15309585286493352,0.63496303713853497,-1.3014025754000442,0.39033842124496043,1.2676028142803848,0.025296040942979894,2.0652631466379852,0.093020471880447902,-0.94336801631415235,0.19057776729086601,-0.74994821131648626,-0.05368616451105903,1.2379730416126693,0.092076974522422694,0.77837726538349472,0.067506966940378596,0.14167866653416222,0.17446351944067551,0.42808096574485571,-0.54403731500564978,0.37137993711311407,1.2087348060790719,-0.50287452135590127,0.19055942131083264,2.1292155284757146,-0.41483218303337271,0.56328119782859365,-1.3627715686631916,-0.92035175255283341,1.6066516376985889,-0.60001317728245107,0.52408387187432759,0.18808625015070887,0.53627125869614201,-0.5517953513302829,-0.011291010327850109,0.66615012411259578,-0.90825498744056088,0.98477479773852072,0.35573957725833938,0.1797213915093816,1.2289728672090867,-0.97422360992274859,0.81077681230519505,-1.2005953268935758,0.78934268454229506,-0.25923119432821717,-1.7925411619636151,0.18912434945691001,-0.89416159873140288,-0.58263654040659729,1.4806287202874491,1.3473946754388038,0.50386243739651992,-0.28022085767510096,0.22681104337206717,1.0186173507885956,1.31514076292694,-0.98927744954094554,1.6318665846090212,0.01737808089665184,-0.39426461245460559,0.91235071703402559,1.6265528084068839,0.89967813713949529,0.60154773872275447,-0.25346114826655941,0.32014977993644977,0.64015475846500114,0.71336567437898768,1.4088704069566347,1.7444819350864023,0.80361909431971901,0.40701733051797667,-0.34394514698769074,2.0773159001124437,-0.4907840267322382,1.4779356258832483,-1.052670977046515,0.5463272883505822,-1.0783406796531316,1.0254657253762884,-0.049832397707349554,0.68468692430329758,1.0297283392921883,1.0858144725701731,-0.35085748944823875,0.42993923870629436,2.2918233267415569,0.12464839953586491,-1.5856287520551753,-0.081185785591456602,1.2969923151298739,2.2244168907278112,0.4807823325183001,-0.97084893651739967,1.7414964288014054,-0.8327856686418792,-1.5953472304419536,-0.30317556653967453,-0.61985294478364883,-0.39326536439256182,-1.1021727249767983,1.1587030141511649,0.60904856156662412,-0.97813288387255459,2.1958637712848308,-1.3013177951716419,0.0052642607881795873,-1.0604928276979944,-0.12643705157889804,0.093769163403952874,-0.50941125993742897,-2.1028728696623933,1.3035739425559116,-0.95704812043228293,1.2559223009563256,0.44939949728646461,1.3084960681221511,1.7804343704326011,0.17116219893368514,-0.38499261421764708,-1.6318586122064922,0.18608970269708713,0.75374683942617571,-1.2426546879906204,-0.76782655498012242,-1.1157469068305377,-0.65979646281797411,-0.60289405741916213,-0.064551996659978197,0.40987137408843644,1.5508690277808683,1.6502136721475111,0.35044781305433942,1.0419154196795666,1.3261768116180583,-0.30581809110973324,1.4726162861656458,-0.71453360657441956,-1.1886210555031571,-0.8470551765176213,0.48448334591977155,1.4928469354568299,-0.070793086938107083,-1.217876081630263,-0.74612204470692434,-3.5724935263613529,0.62747158394655289,-0.3101301468384054,-0.095688543496333239,-1.3189508661164453,-0.40926854788187322,1.3282962033003571,-0.87425128360453142,0.98334503096550918,0.90111767275474974,-0.39988697245387494,0.68829327369478777,-1.3043452036648295,1.2485576242355716,1.4215166682985363,-0.50736851472663425,-0.46770519121096982,0.99663239386472691,-0.43573774412394611,-0.48051430587742527,0.18339920836561527,0.59389983098249999,-0.9649991745065426,1.0803245422676471,0.068010858969186003,0.719213698716342,0.19548982123751596,1.5928176737229822,1.4576244722619855,-0.86584133054973056,-1.373939568333125,-0.63707567006534627,-1.1349816990564776,-0.046257938168102856,2.1387180343614758,0.20620202821803196,0.16426006766619389,-0.82100405365026019,0.44738011694988189,1.255113904266824,-0.42993820099784064,-1.4476108705320863,0.77770457106665103,0.39389682379101565,0.71296194104703459,-1.192000831606254,-0.92318630063377316,-0.26464575566118365,-0.64316254132942352,-1.0415838053157236,-1.6441201777979491,-0.88050549568644521,-1.2428004030770539,0.79961026056832618,0.43881172368347776,1.7658067092544862,0.20412036851711848,0.56609167142908889,-0.60760741650712069,-1.1433966090217631,-0.86105710206945474,0.50179619288988819,-0.45402131241822719,-1.0547265474966787,-0.77279828601355249,-0.94142272306523711,-0.58528451799315373,0.22533800453434563,-1.1191079198042915,1.2376723543068047,-1.1727936075993191,1.4075989816016907,-0.018844085395301892,0.73343615056084321,0.22596485908911035,-0.081152886400784968,-0.09116013143831081,-0.75170843128589526,-1.1135599025111025,-0.45846023190570401,-1.8017238906832953,-0.1937623233882752,-0.46125983263797848,-0.59523934405203416,0.74440915411175335,0.99099480461000511,-0.1014829255548107,1.7870593129847763,0.22790078511150927,0.23689482517901136,-0.56717035070140109,0.5512396865905631,0.28717211967989204,1.0896750276265756,0.60429105973464325,0.049546133070537367,1.3629092616163134,0.85824666265203509,-0.1339026527958016,1.4252089103555547,-0.074525125451130866,-0.24434298900117787,0.8856061548382238,2.0812979703154131,1.0819384832928614,1.2345343525516734,1.3857933608491804,0.24765010660197026,-0.34130608217548336,-0.045877785827125324,0.97233702331686844,0.32345390374610195,0.68846658747617573,-0.32674386297742597,-0.69117289484209643,1.0495082717303981,0.024272438939320309,-0.25312160622329299,-0.8362048359271691,0.23853524468677215,-0.30720160408449709,-0.94447785062896261,0.34605400511733903,1.5643732503590091,0.076859799731760325,1.2955949186985878,-0.85329704379928351,-0.96215707473369394,-0.062884252123422357,0.77666639699112638,0.291751598802582,-0.0045077276274524194,0.82674278189566741,-0.72444202502753696,0.65937219421923776,0.34507119893716792,0.59658019329952627,1.1967824847184052,0.45968742015284864,1.5360863733162344,-0.44467936453355483,0.37516088734682623,-0.13448335051990767,0.52046888629684362,1.405070889573192,-0.44761805006277666,0.059197744395507103,-0.77344609526612706,1.4651510817094862,0.28393682837265255,0.65091698186716729,0.41556077185986284,0.31786083484110861,-0.53996481803336127,-0.071087804551404302,0.56881034539783193,-0.0015433325590382286,0.22595027711787463,-1.8051635529902983,1.706348763581107,-0.67466279893107506,0.91067494111553871,0.43206886683868484,1.2033267436656456,-0.78301651202127376,1.4920523022849421,1.7817771215018785,-0.66826110828934526,1.6026671144181799,-0.94923281822788563,0.99054312883452234,2.0570016618675906,0.26652626556298992,-1.0603628015430158,0.7866408872504207,-1.6676788135097971,-0.34570748195641932,-0.29288644251339524,-1.3806947746194622,1.0275630349311351,-2.7896224713965432,0.61471768791484194,0.52093915532562685,0.30997175568359087,-0.14067443526409631,1.0893490221289814,-1.2785467988891566,-1.4680846484112786,0.015749981979362032,1.3683776832427887,-2.0020148338104882,-1.790463619710108,-1.1342299309316648,1.4825375339352369,1.3186126953115858,1.0342469360806954,0.67408111854706132,1.850525498275575,3.0052745048348628,1.2808667318430826,1.2594616438105573,0.17386858649265791,1.4469024242251753,-1.3981060255360283,-1.9951577315361091,-1.6143767904674065,0.83463639159737157,-1.2273854477623201,0.37312324969023075,1.0113053720712724,-1.2452888032482801,0.82563533052515292,-0.33241722621029063,-0.75258405232382153,-1.9839239552567114,1.8915027802868754,-1.809470571291925,-0.25035741668152439,0.94757855967806937,1.3923170805380687,0.80238535176683068,-1.433825385593033,-0.70493175775688111,-0.73257613421133672,-0.71721946314512841,0.92965517438690348,-0.16877951810718869,0.33818697117841345,-0.88984137752265535,-1.367433651327437,1.3667529049650493,-0.43723196943615711,-1.0751835207532572,-0.4326002828655871,0.36271146355276274,-0.66299978496020839,1.442011583676535,-0.4573929445928237,0.66301187031574493,0.049880175192256099,0.67832983957206594,-2.6666842286866257,1.1743531963045664,-0.27854026359665351,1.3903371554231028,-2.2192866432055443,-1.3942583596180038,0.061278986396739434,3.1232189492794205,-0.058562233426184961,-1.1634020968459109,-0.91974249685062792,-0.25605785751119525,0.72470874808569763,-3.1248563909167126,0.067372335089361982,-1.6139354961072225,-1.452630755490649,-0.42465894764795609,0.044508575101770267,-0.82365998340055613,-0.8789027805167573,-0.5749392038479364,-0.74353437790134536,-0.33693296384505589,-0.49726864367875401,-0.96575308530954207,0.34916056790743277,1.1564755353841318,0.78516365313306224,2.6738577902511698,-0.31189519892635026,-0.56748581347759763,0.12534446999888521,-0.24821412455603445,-1.9307250753311926,-0.016292914292695002,-0.63202423552476039,-1.796941847773974,-0.19787035158168653,1.2373763769154995,-1.6978282351323837,0.30370127813366116,0.12249275490227265,0.059848797903094463,0.26854412480441947,-0.095345488897104216,-1.86709712801024,1.8403408718455851,0.55795417565611838,0.6142061873929936,0.0011744133051674454,-0.22341757677635543,-0.58949854805166058,0.44958307358131178,1.3150003020768197,-0.31153109000774615,0.20935046531497645,-0.96663048945799113,-1.8109596217664456,-1.1491391368573134,1.2011800509789303,1.3021336163205195,0.51345185058476783,-0.15746849011334638,-0.96159424160655727,0.59398815692266771,-0.081758528534133887,-0.41638583105258647,-0.52347764762893478,0.22217788066649818,0.65415331203741045,-0.79662908725544068,0.5238089506811261,1.2867924655907224,-0.024304807704253036,-0.26853159516406894,-0.84165958111463179,1.1088384722568805,0.92524779149627323,-0.11346191309857438,0.80796853250066303,0.69063358492679883,-1.0547551355472919,-0.16515180880070629,-0.15519319455399092,0.98201870682225689,0.69364822132052761,-0.49266673115362347,-0.17941624420356922,0.50755435994043585,-1.1131192728100041,-0.91382298363872516,2.2068717470602053,-0.58219397380802296,-0.46718526999708287,-0.14406369822805931,-1.9647091776724177,0.83445735841046331,-0.41821329062389756,-0.56904779459127519,-0.032053800611759956,0.36239665891693179,1.3055324816962819,0.50163938171497902,0.091263684634457914,0.70064938424578216,0.39433731295789243,-1.3459523716466786,-0.042669960277711701,-0.94336676797173524,1.0533618791437636,-0.64407002038750327,2.7263674063723866,-1.2456104306256057,-1.2183163319753341,-0.67804681768382247,-1.202372760438154,-0.24742597271913527,0.75656986790730152,1.5387100191822767,0.7065436301508714,1.3255069550955298,-1.4039379923859385,1.8334959082019615,-0.78217318244850254,-0.80668523622754018,0.44368667574808951,0.77286082983900217,-1.2284518996686904,-0.15722937625179592,1.7377492249747926,1.0370762441435806,0.56609334084380514,-0.98153983714216353,0.62359627900838299,0.2118941954530727,-2.2360211682303226,1.1092680273689273,2.070023172647339,0.1027076477416474,1.4158300519692002,0.46369268208951891,-0.81760305264669697,-0.60551603665815568,-2.7173501011446843,-1.4752356911664899,-1.6512674060859249,-0.51924315408569621,-2.035950061610821,1.7583832492071014,0.26823113002328258,1.231718512245159,-0.61172086258219283,-1.6797534035114279,0.71204308210627909,0.69639283831471632,1.1006677094568615,-0.12793749518653116,1.4625253703434187,-0.79609853368789307,-0.43458043796551621,-0.43058079957425571,0.13129265407248364,0.63593477778014973,0.26053367706230929,1.1856518096794619,-0.15689264022037633,0.76016998214522324,-0.97343730103299475,0.83625414513617968,0.18930151627744307,-0.46222978596564757,0.49312652354682801,1.7526085170698493,-0.9689982053189693,-0.068174977731064984,-0.16419698739247787,-0.27162845113687289,-0.45244990845740229,-1.2260587398897071,0.13416837307125698,-0.072490193703929826,0.30947652604079945,-0.14101834181983097,0.62235246435938074,-0.78755456948898606,-2.2429247622151949,1.3636863886281261,-1.7289417372807241,0.43572678532224085,0.77107312084951207,1.4511900836920275,-0.89239650284424332,-0.75617352808993443,-2.0141195101698917,1.3417787213291006,1.7623653329489455,-0.068486756318641637,1.1288005306902429,0.29781043062979878,0.26606640262370568,-1.4162480847365908,0.47549947860825792,1.2181129326859204,-0.48926586468518596,0.21706241011300939,1.034336062702033,0.88494688603886318,-0.031505328907127858,-0.69880271920481996,0.85609782910772247,0.11081911944133602,0.3495981650695057,0.60102332978452488,-0.73731040446045115,0.53771938135348418,-0.22242664759037425,0.22684837103391761,-1.2908463677151261,-0.3554731556234052,-0.26888225088622136,0.20906748696781202,0.47100673859708919,-2.0813556115360496,-1.197583920549387,0.051998566059318359,0.90138949582407868,0.82636777092945812,-0.6744390767296462,-0.39820508974866275,-1.0175180420642169,0.43833943381831159,-0.7532299453391339,-0.31439669659287234,-1.2327164999606157,1.7161563976823975,-0.72462647865511454,-0.063843556505095947,0.43809700165268983,-0.55817190049524301,1.5787189149796013,0.55216032264500192,-0.4034927906734983,1.0809255722533992,-0.053602684152514603,-0.77320713256234364,1.292524689485804,0.48425912242068014,-1.8146421759256706,-0.22492381975022765,-1.3480611484399476,0.73732946810475797,1.2363224186483717,0.031830989461226283,0.91500101291277514,0.32671445788305731,-0.097459118292011648,-1.1741091501338505,-0.67025570889643027,0.58324340492843485,-0.66998656044614835,-0.49307098210616196,-1.8301910395668377,0.70220857303973794,-1.3817156896789784,2.2717603495194925,-0.51364955532714329,-0.071059065929132248,-0.074422311496376195,1.2998600827493432,1.4230601180370122,1.4788900234940545,-0.96075577464491468,0.31714803803342628,1.446718078204807,-0.45199475693211105,0.30419873693797739,0.84852305847728748,0.29662619030591514,-2.2249502025270393,0.00093830689197366905,0.18307105271656895,-0.21149215780828742,0.38635426407187862,2.0587147879637921,0.24813990493143584,-1.496584284883695,0.49206678210848587,-1.1902791394530867,1.8951893980718251,0.27407454645914797,-1.3921447996126315,0.13231573578213759,0.68118851564508509,-0.72412314114297704,-0.78954906045341944,-1.1997300641543587,-0.80775963432078612,1.6908652877668151,2.369847624209994,-1.0786927414169536,-1.2537336340285374,-0.74288664173597807,1.4895066710604086,0.64989079188291676,0.90386046047284552,-0.34941065910834657,-0.48422002643785983,-0.78952512384666573,2.7744134575909811,-0.041432917131632087,-0.0088503752002511288,-1.6148976818482907,-0.14879242592596811,-0.97737598579568918,1.5845750262038163,0.18412131084989872,-1.5280259955671083,-1.4269074937324389,0.059492229153539043,0.069023832152641962,1.9382767982930922,-0.18713585639737323,-2.0413176043467844,-0.80313908680782575,1.8634110454324808,1.2343004078478403,-0.73302591335765166,0.51617291131868681,1.3684723216157961,0.29939625605325254,0.27044132930152115,-0.1524863435469507,-0.25371903336758256,0.74769816270413714,0.24918855759116648,-0.15874470010609135,-1.4893273883269644,0.7407507764030471,1.8246058247665353,0.45702884316489883,0.41178777191366761,-0.63845416670754884,-0.12407502326792337,0.33596120530564533,-0.075562613917715973,-0.9309246518036759,-0.69337602035015222,1.6230431972446946,1.4053326494384539,1.8602395376353975,0.89880074109807029,-0.059998324210082547,-0.19186674993309163,-0.85455422263197833,0.42217383926383939,-0.90662776665110256,-0.21380110226845542,0.64152207819505136,-1.272344822605719,0.8498992267438753,0.29064275405282547,-0.044794784830071085,0.42504797719301401,-1.4985746948110861,1.4923080052466411,-0.054241879399292807,0.38815955206333869,0.021419677278901775,0.7962678139999918,-0.7385171144756616,0.75225263642647244,-1.1271790875215193,-1.5150610405814693,-2.0665134881551812,0.9482679721315681,-1.4035521633535974,-2.2895738670139583,-0.54582285315410795,-1.2419907997777462,0.32842338630374723,-0.43829902752883393,1.2515335318359897,1.097901430448273,-0.62178802044553061,1.5132093736921326,-0.13786026309935262,-0.48120250631744693,0.38961259949498706,-0.11269098197593691,-1.4182790638198914,0.63281857979105671,0.28030502337006746,1.1272513316925832,0.96684950017442628,1.3954875153716524,0.088408441878869204,0.061213018877217577,-0.68067879701313294,0.84061737355257549,0.079307566829888584,-1.0861843052470082,-1.1394518549737793,-0.082545729942069712,-0.5883046860282759,0.14425574279270401,-1.4369950486618126,0.23628373126339824,1.2064872190306382,0.48203269716756936,0.78113766775400673,0.51000692380792878,-0.68674434303125509,-0.83725352190901592,0.11565665154182064,-0.073911827210110623,3.3101269402341402,-1.3025232942744716,-0.69396723573140173,-0.12859708930577704,0.50195290905823919,-0.15494319319801433,-1.052835147603457,-0.86387454921996631,0.61354148991610591,0.31412863804343349,0.061288854264396384,1.1508080556493891,-0.037056614795196334,-0.95034489071333861,0.90234540620485382,1.2797623437881034,-0.088343165534697621,-3.2974254405470242,-1.1741798842633802,-0.55625359066621283,0.33422175940948051,-0.86169503435285622,-0.029627000545264234,-1.0322529130045457,-0.58908040123784911,1.7509857753841935,1.5733187736743959,0.30328703444550775,-0.58247577487846292,-0.99862065489961738,-2.1113107576753869,0.74572846829342665,1.6739523120539466,0.90359311612448723,1.2258233037222876,-0.25863245142161784,1.2565652046682927,1.4446340351677407,1.5350496912681022,-0.84670403564781493,0.25335698311242671,1.4841609285484887,0.3109400857091007,-1.3752777386748511,0.052141891072972353,-1.115347885132139,1.436528546504503,0.93051947394410728,1.2198473706542659,1.3219006560936417,-2.0221259070948903,-0.79524789683245611,0.28421803654245847,-0.79469716005193558,0.75231281043843934,0.95693807155059873,-1.5150697479549706,-1.6320950345701795,0.5706064436567897,1.218105048110133,0.45375650359823066,-0.55381566639596091,0.43031592886313158,-0.90268015010615821,0.056106986279561559,-1.5142651808656866,-0.12658621216251537,-0.41950721151220904,0.82197121418434804,1.2438568157748768,-2.4238875234527932,0.10541146714813085,0.86337823723050966,-0.63012574296800539,0.57360851506379018,-0.098460836047152916,1.957183836777322,0.048557332752228496,-0.22421572680188273,0.14378975993126739,0.25628022857026744,2.0398425796062871,-0.32074569017805798,-1.0310573961202296,-1.1240630022726927,-0.12475460658826194,-0.45072028703512784,-0.23545671045823524,-0.73012092686947649,0.80178283028015196,0.81044221923481241,0.34370774826924932,-0.45073830079927907,-0.055829522597279718,0.59828091962341079,0.56275461699882634,-0.093640539191457414,-0.079012640326457134,-0.46503874144583002,-1.0539695644727942,-0.3044669571736181,-1.2139146166511261,-1.1624594875461904,0.84467539834803895,0.34456556303666769,0.78009688975760305,1.1526194922810438,-0.20710111889984201,0.059576595901241355,-0.97134303903918751,-2.3224907210435166,0.77843708701916192,0.60815173545660695,-0.35560618184947013,0.51678982398210049,0.71198523972515249,0.52350069074369343,-2.8477234190050815,-1.9498027296007163,-1.4312052331190437,-1.092403857412928,-0.7753535308486853,-1.1857683044951823,-1.3402466445356214,-1.2698224649879783,-1.2188838383157028,-2.5148961112405166,-0.064220203712545082,-0.5177305188097906,1.4991173588291149,0.5825294560755222,0.027076453957699309,-0.18553078198396133,0.46965909469589084,-1.821450615196637,-1.4730622481390094,0.31596120045812282,-0.25505909837634605,-0.33884147680690874,0.11693344603307047,-0.21510381301487103,1.5013287836684974,0.36515918483604026,0.95633481527439146,-1.4838809195060336,0.67621602126787139,1.5107174260463556,1.5982651351069272,1.212597786072581,0.13227680392560653,0.59499742571063519,-0.3688829321123529,1.0221027995339991,1.8827873706583098,-1.4333897956316888,1.3402778979515888,-1.6302420190556146,0.1095468465841565,-0.80995036947653309,0.49153285881227904,1.0120886913682592,1.0529632980960304,1.0915866447651292,0.66527622408559728,-0.47833974829453352,-1.1629277573509058,1.1086909044403801,1.1106652775725849,0.11926481959514293,1.0380288700583931,-1.056628347350296,-1.1903874971791246,-0.95771228091516847,0.40742314345360159,-0.0054289356977653908,-1.6102601088214734,-0.67192340464471434,-0.6399577410188978,-0.29853683782395812,-1.591464577849101,1.4592730291234812,-0.70401624237247062,0.19496967669692755,-3.5618017625209952,-0.50426662753581053,-0.50304680767822652,0.69570463291951001,0.0036713885960525448,0.52922098935482076,-1.8787573217923557,1.8222059258876109,-0.64061437340714511,0.42470366081042366,0.10350740800689912,0.17862238378632148,0.063434143130236778,-1.371982612382765,0.81100637118294794,-0.6019064211278633,-1.3016185527040256,-1.0174157171996454,-0.3889054424185111,2.5011821482052561,-1.7772441550623137,-0.85031352989307774,-0.44365607151489073,1.1894660538864832,-1.4293981775520068,0.54491415772669394,-0.11450485886455247,0.036016132660830584,1.1267311039670753,-0.47104913995057285,0.18674939514469427,0.077440526409023769,1.1789871872586541,1.3738506709660576,-1.071375898577162,-1.6145275116286273,-0.082725679097066671,1.4451534773291008,0.2343625138121026,1.3854584458320225,0.0095550368666803866,-1.3330740414895854,-0.82259054342010229,-0.32284028534742232,-0.43811326478081464,1.3802915018756077,0.47985704220042413,-0.1286652649053116,-0.35313846462285803,0.39108096814458349,0.010165912020439734,0.82527118136717048,0.30519383861726357,0.074707080434528214,0.19602905167559617,-0.15309623919206247,1.0594470918447119,0.57890015269771489,0.76224244376075123,0.41981472259245101,2.3663385645622754,0.66095929001522025,0.95281019106305598,0.65029821187399983,0.81341455609316116,0.28132190757428105,1.2092644107684423,0.00075077851859118661,-0.15883890107753279,0.33208297196101827,-0.97282204760030577,-0.86342306330392948,0.18525554825466051,1.6292794042981036,0.32092393893541782,-0.50241819303435264,0.86030178641225175,1.7241260553520588,0.065661388777797175,0.071232535919017501,1.8272525707584399,-0.67547777233213324,0.096684719321531207,-0.92780433676532159,0.50936616802522228,2.224814589457135,1.4287472476317187,-0.097558180920044327,-3.2944022132063362e-05,-1.9723542186657086,1.0602781011464286,1.4681135964664211,2.8271196037099973,0.024349043415419738,0.071081414300712395,-0.012419858779628007,0.57827623970065389,1.0076403294409928,1.1092880266328446,-0.93482787823438274,0.84059894898024645,-1.6392160466918344,0.73133399731394078,0.89702780382876668,-0.18581410547555702,-0.57930511097199544,-1.9496469190251853,2.6209883677684984,-1.1060557143131946,0.84535075384103409,1.4193567786551682,-1.6216750976718612,0.71656786504621728,-0.33005652244073469,1.2804468842543597,-1.8226217798916282,0.90643445506965914,-0.63876087030143858,0.49999063210660832,0.2798235563718427,0.55929793754839563,-0.22831711608700059,0.049058027853112432,0.57702077566205889,-1.5115270009907908,-0.90239084903190525,-0.17075136193924631,-0.020210266516416379,0.8577410529307391,-1.5111534293096256,-0.06908868117368068,0.21152694108475328,-0.37308713307226798,1.4476113876809604,1.4996928108539478,-0.22236540616165393,2.1757440943905015,-0.65765288615312878,0.19929594260634317,2.7992495651289229,-1.4332080143471959,-1.819040893787031,-1.3717765156644603,0.0021376811310053977,-1.3293772664076411,-1.3706388100365094,-0.11514209618904175,-0.032817870885217149,0.14960205959585976,-0.19370675547533001,-0.77183835120814259,0.5029874924215364,2.1609133660667492,0.0045852980374962299,-0.28468326808159944,0.032371464088267084,-0.72272119540388724,0.45115303915670718,1.3336306679747447,0.20825072821151727
0.9734559363939651,1.5802290613068628,0.33149080155600613,-0.34084529925586954,-1.1527262240052731,-1.7528979912199874,-1.9196884792992546,0.1946961288371642,1.8771427075227685,1.9022151524497941,0.3983931863257103,1.4152097621157942,-0.17253393962236577,-0.76162056545186907,0.53416535117701025,-1.4322661809232078,0.33925783405728016,-1.4046655098941641,-0.71507007884004192,-0.80359815649019439,-1.0293470390964063,0.1675185737265209,1.0793641811202546,1.7466671223828369,0.12978300960485883,-0.16136970720412316,0.46304630893125226,0.39190185824806023,-0.6677401760585141,-0.10944749349897132,0.16103706911705684,-0.95298680525743662,-1.0324783644648838,1.2179602324734724,0.07040717948787506,0.56314611683061366,0.77124813318537644,-0.96973701824938763,0.27139649311513769,0.92040463355351265,0.73945420665262029,1.0085921087866512,-0.33196477591939832,1.362718114634889,0.051075619693315782,2.1377881268624819,0.97927515185743075,1.7751293237413523,-0.32660400301709797,0.84555057612583051,0.3065625242532552,0.81315996601444918,1.1223799341583012,1.0197603211728647,0.72713995879508064,0.094193343000579174,-0.41434617166734172,1.2487882751638182,-0.98878028192471923,0.56106600954175967,-0.25840139184501104,0.5107345580786874,-0.033818130458379003,2.0331564310638823,0.046146888906154399,-0.022946231683049084,0.48832315728305103,-0.83905160955864044,1.4259622674663563,-0.59679519562522898,0.72283923188571808,0.10866384066255617,1.1748923161834495,0.17548958587578548,-0.39545063368248295,-0.38500721510598318,-0.29049071302828539,-0.06494078547221642,0.39826341983457558,0.68773328071200468,0.64609183101832079,1.2570448656310877,0.7705586414466572,1.4919481747288346,1.1816106692441395,-0.078520124667067676,0.71969560457921611,0.5464586174736259,-0.45592845022841849,-0.15913343497879465,0.55492748361434052,0.93170526477913806,-1.3135810796966811,-1.1002638676510641,-0.13634259876045954,-1.9760718513214701,1.3138011201656805,0.57983839390431158,0.37123756968031518,-0.39315224979754804,-1.3699776614311654,-0.084874379087117369,1.5176357098699222,-0.96053406033702293,0.76150393600050315,0.27644546794449132,0.11124037290482358,-1.3239329276891842,-0.88666802856340887,0.10578477839323344,-0.51504462415256635,0.34891627504155659,0.14242692734480919,0.13921973980378674,2.0514290702534761,0.65785417508807009,-1.7569412150044312,0.16055615299030573,1.9639537025920193,1.0164881850825098,-0.15700250280473971,-0.74217785106461975,1.2433166650660454,-0.065472636064671574,1.3413557437748649,-0.94955635569461105,-1.2038054228360524,0.74853838797105765,-0.27567647522731348,1.0742759750156416,1.1992326922857455,-1.3108554125455658,-0.39507717012861437,0.23859531768504716,0.55026399008695992,-0.31161219855803513,-1.698923101344582,-0.41094896168591505,-0.23706392329759315,2.0184002130323213,-0.87750520917293739,-0.59835140556720723,-1.058816807552639,-0.51805545363244754,-0.92226651693331452,0.82220660663079559,-0.49562844246283533,-0.17153257828958238,-1.9417958793595758,-0.12817238124154251,0.70517016716316661,-0.56754143832680892,-0.9075576549796367,-1.0306843696290264,0.24611263156186006,-0.032330377653120336,-0.87460233669036136,-0.25413811230827321,1.1228896092109002,1.033374042285776,-0.21516778947640447,1.2760359504942977,0.66333240663251358,1.298931220394695,0.059884055335952993,-0.28630692399099933,-0.25039814901269314,0.66914224994383498,0.26457273537082771,0.010713505143125116,-0.35379707004018313,-0.83036130566759536,0.4620636729225398,-3.1898563336274601,-2.7769480211268314,-0.31606691285126975,0.33210873541082314,-0.40924755422385983,-0.94221739002354099,-0.94478495150136066,0.68067799348388591,-0.22380967490602352,0.78541164494430837,-1.1709515301097748,2.262149628071866,0.98413763366925766,0.58177808159192534,0.64945871516414933,-0.1025626742583812,-0.94153803161340355,0.51527730767684532,0.34517868752159842,1.9063997446164924,-0.2243784935638321,-1.7617213154066715,0.6810853134002417,0.41946506747901974,0.37846122411250482,0.82461970594899603,-1.7648026345030559,1.3725426312696107,0.17545838002505865,1.5036648608583336,0.51816413939118366,0.86402023247490922,-1.1995844213118618,-1.2279758257240843,-1.6452941931310585,0.85816876116268093,0.29225442288540404,-0.90545459217901825,0.21104880557950315,-0.28939212859673746,-0.049891395285222524,0.062998959446323319,-1.4108821246551881,0.6417741930432499,-0.60186885760235254,-1.3935320594231906,2.6432248755488126,-0.77623548007603649,0.23555622714033006,-1.4902174068246747,-1.8943853168329285,-0.8628587075617109,2.1367246352156575,-0.23512361183737837,1.1971796025320682,0.39651355645591629,-2.5329311898549571,-0.65932209546035569,0.025735731095915496,1.0760306310361107,-0.24415925864096238,0.30741334009647642,0.041451754181397793,-0.19598726146724524,0.73254477199569545,0.13752300119399999,0.95452536592636905,0.39877902371535595,-1.0627861486279599,-1.4740769252528245,0.31953375037065218,-1.3551894589397464,0.76817733620580231,-0.56528011538264855,0.10546683411808884,-0.0056564957093586726,0.88020007009053769,-0.42475468146289064,-0.70099143224333327,-1.4430681717867686,-1.2279499068484896,0.33552687823726612,-0.39113584252555772,1.1775882070673598,0.9194903514054793,0.67254077794883793,-0.034855942614701631,-0.13929121129017907,0.98240608660080708,0.31445322595497815,-2.6561286559688568,1.3602637717636525,-0.14124912253077213,0.80099561542326891,-0.17201864578160969,-0.69385493871007065,-1.1810463901035779,1.007876435711027,-1.2982622289067978,-1.1650504992711312,-0.62883593787057102,-1.3506339188310235,2.2104320244069156,3.3995522486889338,0.38918036196996775,-0.081678791697883182,-0.33495900786662758,0.69376145548714119,-0.41383017564486274,0.3938399754385693,-0.28558918101264691,-2.0401777565960022,0.31151072516076822,-0.03381795371251349,-0.21566418942383972,-0.72553888899365682,0.61439897054827075,-1.135105010568475,1.0294220782605019,-1.3629784735438297,-1.266347322932772,-0.90873442127465975,-0.52449305146716152,2.341164832945259,-0.21755239938577689,-0.37853433392682601,0.29085395715679097,-0.73985817124816944,0.56156792068294625,-0.84884713867800432,0.4022195854200592,-0.045570520606496058,0.30707962478552675,0.68391916888459248,1.4457862752576121,-1.0197568876472514,0.20603795513667492,-0.087301395202682791,-1.3059530731472708,-0.2540233590041498,-0.43304787591753691,-0.80671088821829584,0.99780618622375916,0.83168303514839681,-0.40978546426624018,-0.78063545962230574,-0.20601041909512177,1.1500561797764428,1.9505706320001102,-0.95779961180329509,-0.62504255249364193,0.64478077538791123,0.43230587450992036,1.0426500099841234,-0.6969600007492428,2.5384807983500646,-0.63886286761363786,-1.9310919834937994,-0.62537141315443534,-0.77494938183194895,-2.1780404144356513,0.48300346975690911,-0.26149853828881814,1.1992225622499808,0.087315955135035678,-1.5494809388405981,0.40495406944983198,0.36342771131734375,0.10435717231787746,-0.18790784518559828,-0.20037692183666284,-1.0227512021093845,1.2259549310908084,-0.745599842804474,-0.2723253130788918,0.84253697031040142,-1.5796007648780555,0.10737213639204193,0.024215666735373599,0.28463002969955886,-0.73376608294511725,0.52109453162899211,0.26004777569734649,-1.3680558396874012,0.76864068272005048,-0.5079584696217293,0.43178833238427167,0.54808949369176441,0.72942231259942025,0.39463804428348903,-0.3130543093324214,0.62904895650732351,0.17026820041770058,-0.26281498765997779,-1.2922158449980337,-0.94184066232617847,0.52097246616979898,-1.2209296442428632,-0.86267700351590892,1.8527897008781065,0.56814482026314972,0.99221545883596063,-0.41913623463167632,-0.43666246415652776,-0.33552999400865863,-0.8507931360786356,1.1913380377492471,-0.7641080115471286,-1.5927047531061735,0.68717663694213948,-0.17160515367829166,1.5539153585887322,-0.3935859927559649,-0.9759902787277317,0.37929408234893264,1.5913418289576511,0.46863126684531481,1.6294829129937882,1.1619661799394541,-0.51109845061078196,0.21944651344657456,0.98931014117451699,1.0893971811876191,-0.87898949418513039,-1.3336712631622982,-0.79361717645186691,0.47534907512585389,0.061359941013901242,-0.98685950712789194,0.35692970501622828,1.4382491553115075,-0.1716037124147094,-0.29782976300885139,1.2464030936797339,-1.2957481120467043,-0.97899165452973091,-0.22237133304344794,0.46373925018242401,-0.40957281099044668,-1.3159481442308083,-1.1423539093301878,0.57239368799456702,1.2921485848229892,0.78802545086990972,-0.85917510436419442,0.8942374049411943,0.44707995042760512,0.42570329389443484,-0.070141394795245948,0.033053561308129364,1.254724514127584,-0.41832158126894686,-1.6790204857926141,-1.3479237933635215,-1.0121229847930526,2.5969703292951736,-0.45303045864293556,0.91030429220789222,1.2252745293894591,0.5114920955651967,-0.7901336300241526,1.2230159099964424,-0.67092979506146355,-0.58944000616006098,0.13533940328547236,0.3795503454166847,1.2035922956624794,-1.7517885434487372,-1.1986379320239251,0.34575655648810283,-1.6994368400505304,-1.7760062905032545,-0.089083872758397492,-0.79497421042951188,-3.1400411475693635,0.19542556179530751,0.48995206878843883,0.93156513472043923,1.4366875789592033,-0.21547190962868121,1.1708897232990336,0.54043567789077329,-0.76806623672997798,0.26393973281726119,-0.3892939121878714,0.8315835838547172,0.52591981639013374,-0.84664341958982425,0.022369339551101639,-0.82556664612217467,-0.84499795403306088,0.98197985228879392,-0.33482731837257612,-0.2694261265509818,1.3406320331963155,0.41713315306780013,-0.38672665503425985,0.47545927276245314,0.61073325262522327,-0.61538179641818658,-0.025771452264005068,1.1233214831941483,-0.10069919337907034,-1.0845654631118036,1.1362632857011741,0.71935359119670328,-0.25974010758871069,-0.35179413086714195,0.43447115816108889,-0.74700155082732556,-1.3397653545978718,-1.0930378968273302,0.95657713883158801,-0.12008416636388002,-0.28816464246427687,0.33557017172548681,1.1500459076188232,-0.65280108390425595,-0.9685190613543827,-0.089629705504796722,-0.51293009906842513,0.42736974081616647,-1.2517074344558548,-0.085264050244837325,-0.32949646505149865,0.5865317205214865,-1.7541565713691891,0.55903046719489524,-1.169332265198471,0.43477899921771035,-1.0486336442808013,-1.2597884874263152,0.052422546941996793,0.045838286477468071,0.18682209072837055,0.76569183971874222,-0.93173393333928534,-0.38818560862225354,-1.6038080849935763,-0.40564340132527399,0.97423560179942692,-1.905708116128991,1.6768702467461725,-1.7564146005328227,-0.31287203281839293,1.7109867853966589,-0.19303903983775644,-0.9925410233750358,-0.66133492456665077,-0.3613693710926188,-1.5244641850783056,-0.80194757758174107,-0.23077036880163329,0.88414243661450542,-0.91477915674803989,-1.0477557151074284,2.609064059099488,-2.7256873073261909,1.4452609694402283,-0.55557929871892775,2.1068178397350907,-0.85926024434576698,-0.64912925710482561,-1.078966376145666,1.4084200556775537,-0.96319676359805839,0.42774513784531487,1.0610550027356198,-0.5678967629483842,1.6493274251589463,-0.53822028287451928,-1.4758774004088027,-0.1935284012512172,0.32949230114367428,0.23182018109372091,-0.62100725617685593,0.095799310498112217,0.027522083052459942,-1.2897215591592155,0.46276815969598506,0.63856704973386702,-1.1432435264468399,-1.8243728049822263,0.76020299840237959,0.31546562125402533,-0.70961186885125782,1.5188163762627054,0.33125875854024767,-0.21262904827534354,1.10353363169167,0.62680305776102141,0.7118743749872295,-0.84087441296678911,0.22142834123280095,-0.17355369332758092,0.13962853403601141,-0.22022173385462027,0.67633038308360949,1.6906158460719984,0.73243609819427091,-0.66955959992008385,-0.043182379172395279,0.17155392164185096,0.6996698444013838,0.69160557221016516,1.0254285903616835,-1.5806969187083573,-0.014999451381277498,-0.62878586133829417,0.62837415055554025,1.7713700952857072,-0.052872394081465907,-1.4954143529634174,0.261535232189267,0.97457232144110761,-0.48985696569672177,0.083057348702630818,-1.1038329862821976,-0.38150678344237382,-0.43395175758519089,1.6240241291795812,-0.46589631187302055,0.24493952196654833,2.0163755126871896,-1.438313915534907,-0.18196689634918001,-0.17291441383307204,-0.31454387439535736,0.77636239950966512,0.47266975663734095,-0.065825074359405975,0.42257099477934684,0.32079257541293427,-0.81335649702420165,2.2573571620203432,-1.2540826990371308,1.4583366867985048,0.62125494414878912,0.11551147114506072,0.02812681656013874,1.2890807838866385,-1.1481207174040648,0.062707780236111024,-0.29197629977308315,-0.60932105622411303,0.60922581407069876,0.36096789410301189,0.91782488758872094,-0.50664966671974743,0.96065094686804098,0.079114184072514956,0.81730490266230604,0.15233484633754316,-0.084837019134055822,-0.52541045802034825,-0.5176598790024064,-3.7256113601352077,0.33135186298966157,-0.0099097825957331839,-0.4620617013407487,0.88216210269022699,-1.08448331248382,-0.14812991221976007,-0.22920293444015763,0.28283815271374307,1.7408144183567078,-0.59841566791876555,-1.0664731323379764,-0.15797365918516765,-0.4998237212694473,-0.81413885560026289,0.31821696076671274,0.57832233630804952,0.69913269951978385,-0.47424319113374613,1.3174262930563994,2.1471062478728435,-0.59508360230002078,0.19032295013674896,-1.5625230505265097,-1.5260317461598267,0.41908293285208326,-1.0031581540999945,-0.74081390362481792,0.28170812460880273,-0.65774752921006285,0.31605650106978705,0.19177949344116507,-1.106632236679127,-0.38991056266781382,1.2206452853204208,-1.070174887187904,-1.0501651743139013,2.2754895142499216,-0.54157497540150001,-1.5170151482127763,1.0348129316784702,-0.16631804623962054,2.0814307996094779,-1.2904989349684308,-0.97918113229784975,0.77520891141874515,1.0753974742401251,1.4436056806992288,0.32394197134321628,1.2154133620558578,1.7195923781043538,0.84869597245530592,0.702322844510476,-1.0430784089809539,-1.1312770061774746,-0.30574956151802024,-0.17633733190611517,-0.36961660796125029,-1.9874209061140817,-0.35775592602096701,0.26474051655975767,-0.81573937623391912,0.23992796503954403,-1.3814660737221813,-0.73700309188569835,-0.74924638834756729,-1.6449952996971251,2.1770294063378564,-0.71550565892241924,-1.0115243814674593,-0.41762147794105009,-3.7684425882204811,-0.32306438393824721,0.26115548384923087,-0.72933122883130774,-0.28283436068183038,0.88948551543697985,-0.48025335224157467,0.22206550718115642,1.2777596437842693,0.2093295072391593,-0.51589586649755081,0.24109811285569233,-1.3161139381203062,0.52602206047182465,0.85454338000542207,1.024060296581595,-2.292893730257676,0.062170081797260197,-0.7368617442461276,-0.29199916808760151,-1.420398602891227,0.17175221360669546,0.35495071348522134,-0.37686868028298104,0.29188103389757419,1.5741385712043507,-0.36105940495116617,-2.3443830803516783,-0.11054939549287109,0.75522856235687108,-0.1280485241598337,0.57501004473180273,0.37746537448496686,0.26216374625091554,0.57647546082394308,-0.97050816984845856,0.13463852241245206,-0.78922913617956958,-0.83215326718281923,-1.5912446711786035,-1.2818793455300657,0.26644582873163408,-0.23216928495263423,-0.39104115776203685,-1.2668383077249703,0.36388861490356078,-0.85186550681321083,0.53776778613338694,-1.3952882851152346,-2.1895611518798268,-0.80885492268571557,0.38085481863990028,0.20258848850008301,0.73931692241940683,-0.31593157632851704,0.61799700777058553,0.57925762884291698,-1.2496354787407633,-1.1354788985756725,-0.42456779277352474,-1.4535420599326689,0.41488847154077668,0.66989785162789683,0.71584225537761204,0.62868664069259672,-1.4886204097804057,-1.8574513916851423,-0.64391951233816824,-0.4000610678435117,0.47318500464266838,-2.0841799041924904,0.84659098555412349,-0.38822679510107122,1.0109472933731114,-0.024238023190650135,-0.1750041019282538,-0.1000326556295512,1.1044444915495666,-0.92261302478281793,-0.49057451359663462,1.7220888200878051,-0.58261869515980225,-0.88535848561703945,1.2139317362520057,0.89304687078518474,0.015430102378519975,-0.71920917883635371,0.29231446524805982,-0.59128435461542317,0.12196212058396783,0.42958151826609453,-0.67277302482319767,-0.31755817163405831,0.39160882533805419,-0.26635871283472545,-0.70735715255739018,-1.4015963343863032,0.80236244169313209,1.5025264830869918,0.73364001691660063,-0.78561218844740666,-0.87799725434053089,0.84667710507420935,1.021616894659179,1.1717759836791137,-0.34635664677833983,0.3995787421785868,1.0961822968626915,-2.287197879598776,1.7425689101387216,-0.11169101495014315,-0.57357402269482538,-0.12268574791727714,0.26582340947485461,-0.94182515202731198,-2.2096911819578651,1.3978312603735477,0.063146973908236786,0.54764531615142897,0.60260878023330733,-1.3782558203042026,0.39194314139589193,0.04434408185605021,-0.59763182037649498,1.05790921145547,-0.84196279703898913,0.24558005642602221,0.75001273948488911,-0.45753549892558393,1.667798643549866,0.37115378159411649,1.732420580078976,-1.3267870300155324,-0.89869888265875686,-1.1152792362405246,-0.36571991352382333,-1.3856771316062284,0.19539931368695379,0.21190244298248428,-0.94209549854756158,-0.67307079967354766,-1.719885809255534,-0.66836612815400787,-0.22914578476791311,-0.49693365717609322,0.029278654873006099,-1.1034744935213603,-0.31178726261425266,1.2138016554037503,0.68332880304018062,2.2638706999712035,-0.69652730796316487,-0.18374040314520984,-0.44428134377604528,-0.53678753962340875,-1.1105950828863727,-0.8686656152262483,-1.6710150202978651,0.039035950953348837,0.60497122149729388,-0.62302344264902165,1.0411410398277456,0.14466661054611574,-1.1611991681870384,1.5788172381821135,0.25879161327140138,0.3174309540100449,-0.39129722897075542,0.38128032193653411,-1.0111442460580968,-1.1803081514359002,0.95819889086742738,0.88693029292866654,0.45515817919188667,0.78903181642372888,0.74002288959286433,-0.82314351324582358,0.87148968215332923,0.28334868280153042,0.37022376417198793,-0.44804270648216477,-1.9557267028502969,0.32724293864494525,-0.39487961066980831,0.037134634614131495,-0.044041381557383158,-0.68411570147353717,0.82784573845765075,1.030072402732616,-0.042721970991112995,1.9875880558793939,-0.76043532550185089,0.77159518141238514,-0.53648626627986784,0.83161462346791981,-0.74056577848890681,0.70955087432623931,0.28974885614690188,-1.0850108656448296,0.23280033038690107,0.25111882802039293,0.077706700554150715,-0.57084552941872702,-0.76459315188464105,-0.64086801823194928,-0.41142513798536279,-1.7457136619219502,0.77709689521418901,1.2959734148219717,-2.3626483633612896,1.3759991410131107,0.071284126776787513,0.45647770857276776,-1.0025899960338698,-0.82180418393515364,-1.5453214385798357,1.0988028918479795,-2.4178277078400079,0.37513457268441452,-1.106930197183458,0.32828769044598521,0.97929480672787617,-1.5567425062875468,-1.4673505446410247,0.041491831240179813,1.2536120886250488,-2.1368689600978659,-0.16070224477202058,-0.45555391737911999,2.0505526701014309,0.55765629348931289,-0.79371155018243289,0.880562484220755,-1.4086179133479861,0.14314653079414544,-0.63131232872058574,-2.239338084580397,0.72946508917080344,2.0236551165284236,0.12671689584056048,0.65751716440862129,1.2231975380469737,-0.31759371171359746,0.95168095000103969,-1.5307575556334525,-0.86082328868456537,0.37129471006620651,-0.18886358649745777,-1.1969682096415299,-0.33048360791596104,-0.27162579787605329,-0.8415964866323582,-0.50011891640679262,1.9881525404369655,-0.6474115831173527,-1.0024738307438787,0.087346987167912768,0.86907170902521858,-0.56775042116545504,-0.76704061204604834,0.72734214532296149,1.3520850306130898,0.083416084695864659,-1.0887801451075536,-0.28431832375733562,0.43375510192112676,1.2614967186376087,1.0628865574092188,0.8278793619729331,-0.04744001598478547,-0.34581666617696333,1.1734950817561689,0.40034902642088038,-3.3001930141243099,-0.50084115099928062,-0.81464849362340341,0.46147502147439967,0.83343078178979391,-1.3533835940828349,-1.1082741220077801,0.73432076084591569,-0.081761562600843912,-0.92862950468246852,0.21989884076634744,2.6446188871745133,1.0014604798907021,-0.78321567298982653,0.006719123702912483,-0.80625846006151691,0.62402164738892119,-0.56357316320466666,0.62565280738358886,1.0484946176636276,1.1638018735271456,-2.131233044702399,-0.70349785158741962,1.1879033552877711,0.10634982536936936,1.8761209463060162,-0.87016889354381777,0.48352199699898457,0.18229381523081167,0.83627902109175756,-1.7109507637672303,0.40103004340424525,-1.11377283155556,-1.0231886317244772,-0.2466009699295566,-0.46106848511130666,0.01258835840366603,-0.80211162194967445,0.20102933774774853,-0.59967635627202776,0.66782873545829646,0.50492960170868273,-0.90447919828643264,-0.077408488806717093,0.16779914107505137,-0.47172332601107575,-1.0536491448967997,-0.26203846351967008,-0.65077961772525472,-1.1599752601962718,-0.11704133158397166,-0.35974524025178867,-1.1338340166008392,0.074602887479849625,1.0765959006636407,0.32129161657243333,-1.2636631482152225,-0.68552823836921151,-0.14300514823105354,0.21874494834754071,-0.23127056517316674,-1.916863731461222,0.16866508846752529,-0.14476809691545253,-2.7448058219347833,-0.35116404365778542,0.35447619065604613,0.55196399700391763,-1.139094622430304,0.50282047473798064,-0.090025510074495899,-0.17835231446094466,2.1578770416808726,-1.4507178415783051,1.9163390851809887,-0.089556453001945438,0.14539742274935397,-0.45162076074028329,-1.2682987870060471,-0.23548580642955005,0.26421930024493945,-0.11857043994935114,-0.53266431175073348,1.0316990297893549,0.64092960381023223,-0.37475738736973541,1.047738350515125,0.19714198648554487,-0.10271374977586742,1.233045600723234,0.52857186817478785,0.36085007829971449,-1.0061494592502351,1.0595536514192065,0.61463265901929276,-0.56286334395742443,0.82825003676626974,1.3963196003220162,-1.2637887374748364,2.0265105066198208,0.064008786604318399,-0.14357284247152621,1.1019500279648549,-1.5744237489313684,-1.9955123166682074,0.47823604044524615,-0.43186103783386487,0.1032271909562429,-0.44088944927540669,-0.48761282526322319,0.8723712414044632,0.59020977971753497,-0.32057602332520641,0.84432329947497875,0.81392005212232554,-1.1723739033350911,-1.0650091639915074,0.16950971140755217,1.1585168837910191,0.022776347340617783,0.49419038012594513,0.30857105447638355,-0.17417836072334089,-1.2797722990244118,0.097439373103110141,-0.38624167087082878,1.1690421952433696,-0.83667735409877197,-1.6770357539360858,0.61513793232075287,1.4281390030394097,0.79998017921967934,-0.43465568078913713,0.14556747354471533,-2.7398607189524968,0.24760607374353008,0.78405114022904543,0.74560684422668633,0.59717455231922822,-1.2588405006993304,1.167118335337656,-0.078656694139892486,-0.16633285185618182,0.72841861948557662,1.345562388850152,-2.1785384921177795,0.15077741057817687,0.031281600373702201,-0.10857513229641354,-0.25959535503437103,-1.5753803702455595,-1.117628725707206,0.068769533550297149,1.9401071024329042,-1.7035262232714077,0.27971637028641572,1.4070100719749246,1.3101901643617115,-0.12478599473385096,0.35395214606022296,0.64023091535045562,2.398026975645994,0.1054355762928159,-0.21066769597670262,-0.80554321068696488,0.30812056220391648,0.29146143554942139,1.8557447789570414,0.33196014245533823,-0.58966676628261272,0.66993615623043212,-0.59627367268762299,0.82363265737090496,-0.86435515149570441,-0.59499743391136695,-1.6697929578511526,1.3617320320726414,0.46262632419701888,-1.1852892238048891,0.86302106430428527,0.032078801215153094,0.56906971310968169,-0.44878371980335158,0.49495593287299416,-0.53589006338337442,-1.2515001619951582,0.54848078354462981,0.56458243158775046,-0.43074193210456596,0.16096369857736684,0.22596367642647136,0.0249996590200342,0.66525034239113956,0.67919854694046145,-1.9651153025080101,-0.86088694587865944,-1.9328287086963998,0.8651456132714811,0.028779716992790659,0.23164088096822308,-0.40681174199659914,0.77681639000942215,-0.34634889811362934,-0.016968567322384304,0.37102929102677978,0.52216285679125851,0.39611817272806038,0.2443529775934907,-0.29191765413286574,-1.1526125500708708,-0.18696412753107397,0.60790575756074239,0.61455793894264898,0.10730979608107312,0.56252154149802847,-0.2678082216480614,-0.802797685201181,0.78793790832836619,-0.42046715890251934,-0.46019928403073174,0.24275412871925939,1.0262495727500749,-0.78140565905600601,0.10230780208373777,0.17726862824377307,-0.10476780732702576,-2.7336445354371559,1.7004346345970862,0.68864574905100484,-0.60913150890136181,-1.5074849701579185,1.0982711489857633,1.4085741809232906,-1.3282773768171545,-0.77653721963200739,0.55887259647563414,-1.203164891998004,-1.0268282951353527,0.67070064699348608,-1.1801243344102446,-0.017761856425242563,-0.78717201688527427,0.69307150914478,0.75602020804537662,-0.50868403721044175,-1.5241132553691374,2.5912395605739333,-0.3105820661734166,-1.0440802008287464,1.3686707674483507,-1.3815351011156238,1.0874529094664829,-0.45855267961534552,1.0118379490190705,-0.065415039016336676,0.6299166114837047,1.039768178582186,-0.30903159355204268,-0.8604053644329176,0.70427868763892976,-1.5242775160571094,1.0973374164402196,1.3274722083679653,0.49465094761310985,-1.2015656897412499,-2.1170539458429709,1.3755633385785304,0.45612771682805003,0.017651932315134601,-2.3023584991957091,-0.53917795656772061,-0.23429531881467763,0.42984766850588113,0.94993289594360997,-0.31104535041552817,-1.4002293790296296,-0.71560037106691454,-1.7328153976650069,0.23631948762872196,-1.196842774914092,-0.91242687896932173,-0.37464968875198212,0.67907685781790217,1.3513998598098631,0.89104533362717497,0.1371540931102502,-0.29719790145080982,-2.2031183110376862,-0.29331759792587603,1.7514173796261239,1.2589461620879356,1.5407729936488792,0.30250530048491914,1.674690035841939,-2.1240925964207245,0.45220533323423018,1.0055539863106004,0.0013036400686488414,0.25044301920421158,-0.25445043903424619,1.7577330468373584,-1.2404675619376329,-0.46594594753066221,0.18636059937896457,-1.2000320087824343,0.81830915889442413,0.064737546984560371,0.87056230722058703,-1.4016877231563514,1.5401177691683947,0.025335067859937752,-1.3325167383133323,0.44447880027301234,-1.0760305765361389,-0.82424086354716064,0.8641582465517117,-1.0759222953875083,-1.052122715687958,-1.2492870759142465,0.34815247355992451,0.55710893902412839,-0.67230539892640773,-1.0332482209304841,0.00068961607452217076,0.86495723178796624,-0.4523621473412231,-0.002155471178398882,-1.1755588051305481,-0.042566135566630484,0.89701126400049991,-0.32375972698236721,-0.065431686328226726,0.40449128468795315,0.82251532509690228,2.6432085046882454,-1.9353412682905617,-0.60014742113870911,1.0121805788949341,-0.86154036195941475,-2.019273123911169,-1.4301098796348377,0.15904094671372579,0.40123690263323797,-1.2869453206395214,-0.0016660062697656684,-2.4438948218618961,-1.7570295176912221,-0.51713340909393202,0.18973159321280061,-0.51218036700725733,-0.71495796907406461,0.68561712480297854,1.4077356100000706,0.56910438335345537,1.6650773592655199,-0.51069130779274452,-0.16230163475938206,0.53643432452675677,-2.0697174325930212,-0.16018402332636844,-0.20410558233206821,0.38721276820212347,0.77912143553974433,-0.64619066817988857,-0.16823292735945639,-2.6582794246031436,-2.2737403892733781,-1.0903771782459974,0.96145096328906232,-0.37573327515429417,0.25635293243268625,-0.22339960699805039,-1.2254115037377709,-2.0554927806900465,-0.50190093748087661,-0.078323668489626935,-0.37533905726092448,-0.22300238988421456,-1.5583729811038136,0.49066416209374214,-0.18228449940925665,-1.0691852930918901,-0.45769727162699969,-2.2478895110743595,0.08341947125016419,0.098278041769343766,0.098398060075635424,-0.41116374388475818,0.25401648558983503,0.84722620991513464,-1.6291424381864701,-0.52653888514263514,2.0078497409596707,-0.49487974199853163,-0.26604567113561806,0.15476408571364256,-0.12783948093414993,1.9345519642627691,-0.23540290968711555,-0.61423084714771903,0.61727663981908032,-0.66657467366319234,-1.6814133497956814,-0.99737181888761561,-0.86079344123744383,1.4728002094555734,0.082604194002447881,0.1930448896222634,0.80140493674825353,-0.68485341155011437,-1.1972988782230967,1.9420198746947883,-0.62382291589182837,1.4991750626992399,-1.0364482995685287,-0.57574261895759915,-0.8227403117054326,-0.43991697530899659,0.24751661838553315,-0.27529447095210624,0.54106322108231619,-1.1355014869396567,0.43118480765686695,-0.35995529529018194,0.32061405314787406,0.63327431070808426,0.23730511756641465,-0.83573675547778803,0.13143770207225589,-0.35279046057149133,0.48885106420110191,1.1604889169097627,-0.14481150879940916,0.40917216507083587,-0.79405232550778237,0.076876195606175354,-0.79671182700134324,-0.14574317719200977,-1.3303593550293766,-1.3045834571650188,0.61051520116667091,0.14395836769678449,0.84221983784318499,1.3937376034410967,0.24736782149763986,-2.0445170698009822,-2.7634485912713709,0.91644777664884913,-0.47671489309817228,0.43808792231331506,1.393173281147148,0.10604695228094452,0.097646911896245248,0.59988827532486544,1.1599627281683582,-1.3233639471769301,-0.25283810476553925,-0.73603328791086176,0.33405079622025813,-0.40044347887690446,0.38497372624349829,-0.2730497494850555,0.23171517282836607,-0.63179801766754451,1.0456669090184902,-0.30572791721534104,-0.9568313906821313,0.57324079821090723,-2.500202108028895,1.2830401778518876,-0.51226349681619376,-0.75182130416552984,2.9723945336011357,1.264566864256282,0.084929540582753718,0.94006410654188821,1.1750672871263479,0.31777994974898172,-1.1876756444026677,-0.20606415306940856,2.0542086928998309,0.84370674635719967,1.1556942729341571,0.025934659695780508,-1.1878211284834608,0.85738955177799692,-0.66798555487372324,-0.75069499963109776,1.518203222848753,0.96942126279840246,-0.19867671161994521,0.19328145011960646,1.3931724502541742,-0.096002631704539723,0.99426304837007962,-1.6305808680237737,0.31477755885571335,2.993674342103704,2.6048309919084369,-0.19453905011736894,-0.75684336527717266,1.0916387568516945,-0.57187643711140979,0.90496829336550078,-0.40821471147274246,1.0070907015934329,0.59237118917783227,0.4414078252159741,-0.5288156454380184,1.7129400462515643,1.2102258982518195,0.59778994354028703,-0.43834033043756798,0.093685908252822941,0.72537185347138844,-0.15928600604005613,0.31740858445176429,-0.28544728000038921,1.4362533009170197,-1.3653357820323155,1.5034203184998838,2.5643265179531385,-0.70798962070578042,-0.16268751987105201,-0.53409821926811163,-0.361448107389233,-1.5584653131815314,0.92905566362892578,0.56332505766312502,0.54892197333585402,0.65734772029456601,1.2706123275564354,-0.19285837959160398,-0.60539890392981155,1.7206152750967674,-0.56529861131713877,-0.8449940666468001,1.2004590101734962,0.91371190508046096,0.18737365836133624,1.1697384745335173,0.77046895960599227,2.3908239177095454,-0.18375401367787206,-0.62471514467833433,-0.98437380775755756,-1.8077818761815567,1.033118942813807,-1.2791067379844698,-0.15968354952943539,-1.4313311729319704,1.2228826921172953,1.5988003738647252,0.45759840932581652,-0.027615705780606955,-0.81666781502701002,0.19975206380183708,1.4782620215021356,-0.062890493431053671,0.85063979927657318,1.4042231792132198,0.31421221696953422,1.1876745442558203,-0.80974917382785561,0.45209437208478703,1.0865597520508232,0.7147075595273189,-1.0535619226621842,-0.75041681715624131,0.73471408955936712,-0.84804342767482366,0.13556357727381654,1.1871278320208309,0.99344749602459836,-0.99300180876017663,0.76639749180917904,-2.2306134873796282,-1.5930816298614401,-0.50312355685998589,2.4553827799969965,0.9242582016529538,-0.39907932570513688,1.1280571444733924,0.920152404247773,-2.191453772065882,-0.022480784384752955,0.44347751109611844,0.68408883677176979,0.28281077804927018,-0.91851955800526397,0.64140607902425928,-1.7418980046779586,-0.94573071803556485,-0.038494467983448841,0.04789275964672126,0.69387975875508245,1.0445105528477585,0.031055093263805088,1.4241801918676256,-0.23711641542368295,0.65097970773066594,-0.36951281653292639,-0.25213425691982644,-0.18610646965216046,0.094753487584008284,-1.6045664367066566,-2.0767321392664555,0.21409602680072692,-0.58700303503516682,2.0467932087555387,0.2156629428962436,-0.6728066862876696,-1.0783386994988036,0.10962565474760644,-0.46598418336547764,0.59241660438324173,0.79755978829240293,2.3023256500424569,0.55389546834652359,0.183458756601803,-0.30389695541357353,0.89578718300731364,0.053893891933730523,0.8786295372167312,-1.5421600115681036,-0.58170568320284788,-1.0201403942533274,1.2712572028602829,-0.85025671713987083,0.76167428682247273,0.26435252708113816,-1.5681977269942986,-1.3804151054358667,-0.97319760166894564,1.8622603812028922,-0.99658379538290787,0.54039220337603278,-0.86587585876545181,0.76179812503383859,0.3205590626331572,-0.30310085649246749,0.31408748812085557,0.82152306117489471,-0.320235126493363,0.81316496058966092,0.22027215874451889,-0.93874188098900369,-0.3314650398562165,-0.15078371906292115,-0.49470072736993059,-0.61668251585025591,0.78082313055941788,-1.7492486821548552,0.017683239064699315,0.037127845702062658,-0.99731295563083289,0.68336689670310735,0.33815341747658556,-0.99380582956908525,-1.0327213594376929,1.0865608924459578,0.62334689742082638,-1.8101298774758965,0.44250202070385486,-1.0532148429671913,-0.40022775559308782,0.94317214366793023,2.6323291052830688,0.25323340716535558,-0.39110817462597008,1.7735088625381297,1.6029995303008022,0.11469659076455681,0.020366767810718119,-1.7813206151686627,-0.87089311609112452,-1.0621929442839804,0.47821064479747077,-0.41368309688043692,1.6260360204242725,0.99918820521983642,-1.0167200792302031,-0.94294234483333628,1.0838541682373941,-1.2672477159351181,-0.2789027911904513,0.21181390045688869,-1.4565004290568579,0.16707730472600046,-0.17197583581900752,0.98132661563417622,1.6831768444492179,-0.17029710532405287,-0.68842489879068591,-0.63966319173661224,1.7527804395015214,1.1858915395653278,0.64863904248861226,2.5034252692315895,0.78776516278834252,1.0380893762742602,0.51467728941610336,0.26195366649257507,-1.4477640767860498,1.2011332885467862,-0.42059386830671081,0.66560022222885717,-0.37208756497898493,0.85316714723355036,0.87487599457265874,0.0037444894604142737,-0.94625563075900287,0.79367288631676969,-0.63639100201002241,-0.22540727124169349,0.22275464388055449,1.568506381235135,1.2015765477499665,0.36281394561078806,0.013361901943686222,2.4762915126698664,0.85555776348589152,-1.1624060171380401,0.41007183364210065,-1.0201957326456415,-0.5080300527241135,-1.3904639888871348,-1.4147714527172357,-0.91372327981976376,-0.73780767216062115,0.16339026034092843,-0.90226881348806842,-2.4239369733466543,0.92049344278666823,-0.46584515831735512,0.9551336533907363,-0.87041938901190496,0.17658366112030979,-0.6688323251914754,0.75742475236429296,-0.21543446371087377,0.48011619568365488,-1.1950250004923528,0.62962643703863685,0.059578545705580181,0.74885395720343673,0.42510764213868429,0.53574704451271371,-0.52957872104696391,-0.82786393582860363,-0.50153920808275876,2.3167737456448014,-0.68975531051377104,0.39372342691075768,0.58901281427089425,0.34327760338632446,0.19620735010589346,-0.6301817155299948,-0.97724577173637162,0.72715366735831533,-1.5135579360384828,-1.2866444372984653,-0.025811150524926992,-0.84488517747616443,1.2391130395774657,0.66139905827966294,-0.43716745646905136,-0.28160149657179734,0.34299875649006589,1.2725894971796683,0.051765429582910354,0.64410997504682366,2.2043172890533254,1.4129407341053526,0.95376628796104623,-0.16055179746715298,0.93814428001023253,0.93695405141567389,-0.24564562652476993,-1.1193678217633118,-0.16604668105465825,0.48542502496354228,1.7460618379856387,2.4839336469682496,0.26594442061761941,-0.36873900775288615,0.71314718022763768,0.033026973758176703,1.7984834296458694,0.055257803759690659,-0.060485546764652891,0.64493060854053752,-0.71913044290312467,0.28106845626925103,0.12905037991917359,2.1784327031231592,-1.3040920188956384,-1.2907929187199843,0.34473692824714108,0.30319584132301597,0.069426941399861108,1.74684212228321,0.031323009564998318,1.2564827826071423,-0.21438634735811843,1.0007303246308625,0.0082843512938140691,1.1469215422223253,-0.27197951180236019,0.21856486918928864,-0.13676877772130328,0.73823315315049021,1.4825315388867604,-0.44099718584967879,-0.98571267108887994,-0.074515326238853236,0.041172612739920476,1.6247354302904768,-2.2244470681633257,-1.3096813972090458,-0.94255257450584096,0.26178647641364466,-1.9636588539609849,0.23687091920497655,-0.1650781996017415,-0.29382632920513102,-0.80721266050124396,0.30349332000934448,-0.5565147842211442,-0.47862851448533161,0.80496375455302815,0.012625896923219635,-0.21355826275113482,-1.1531370792624864,0.62209745908884362,1.2103111549836607,1.1815734487928415,0.49910509975943734,0.76551446388645827,0.83238481167493261,-1.5173032307441174,0.28274746800761541,0.084692229547322362,-0.25716454201935141,0.4991005955666834,-0.79705663068253352,-0.48730598162606165,1.6306879697290704,1.4792546814996825,0.57432631870918249,-0.36318678974522134,0.71341639352290764,-3.3396770883522562,-0.60206316748737243,-0.34739931380492484,-0.43022809135064188,-1.5973984415267086,-1.396455827636915,-1.117100824600153,-1.3856776189560192,0.83454858745097438,-0.59464017265414848,0.28308094178536919,-1.699849797358554,-0.54174229510971716,1.2285702882837788,-2.4200655636647777,-1.2702882104737254,-1.1697989962890327,-0.30516120065851138,-1.2557421215107609,-0.43377603502925982,-0.00077507614639860535,-0.4080227637877073,-0.79247850754597426,-1.0034201041183737,0.11362478311022636,-1.8634938925215223,1.437302324680759,-0.17651110083982013,-1.6237684684985698,0.61116778050380549,-0.31002891541198552,-1.4495481475485625,-0.67488031425307127,0.74142542675786061,-0.63844516897207393,-0.27809849449053831,-0.5325011670336548,0.13234631550363612,-0.90052198337454137,0.63265323818455321,0.5675641360565602,-0.90943610082277149,-1.2021819866498487,-1.162554257198857,1.6332754657352384,1.4345702086384757,-0.071309570126913857,-0.14143213867314058,0.06811163516187406,0.26761697956709068,0.69210114514294563,-0.15392935718876288,1.5300585643566305,-0.018878111158603383,-2.376085721158625,0.59388098327998906,-0.76427667594263271,1.504098651968393,-1.6036197760835327,0.55985666031930337,0.28201477774902955,1.807615215152496,0.96120246805824239,-0.64960815321562682,0.71926367002984781,1.397904426927153,1.0732804932016122,-0.71699991756546644,-1.1883792374823905,-0.43639624712974517,0.51492773072380182,0.050411443508620202,1.3981242559052396,-0.65275089215997228,-0.6292783371483277,0.26564070689853347,-0.21598194866077905,-0.58633774471609146,-0.4885985643171516,-0.83928313713657077,1.2203626304847972,-2.0566500883312204,-0.53288613741774227,3.1366027847187041,0.51335985839263498,-1.6436165599179777,-0.35847293205735786,0.89240810309126339,0.94504889268183767,-1.0129375388337332,0.21727654176444539,-1.7410247057692183,-0.40980207102357435,-0.82427529093544949,-0.55298080270534722,0.19450271827712215,-0.77673350340198888,-0.37505718713399777,0.83822553410251477,0.68916268505582001,0.012367616271110249,0.6395489048722085,0.95951699140661473,0.70732192827412321,1.3662417270119125,-0.057276813129327676,-0.50573294087250831,-1.188895788655884,-0.032705715765735832,0.12904446349583987,-0.79776878370846815,2.701530770941178,1.4846806417253169,-0.7001183912920681,1.1393953118708888,-2.2580452422470301,0.13783620574766253,-0.35396157789721161,0.2368743543274707,-0.087210950996676945,0.28558018597287366,0.52701769756903694,0.49254113114830594,-1.0341352826773742,-0.23880980184437128,-2.0891705482409186,1.4275488108374248,-0.47343507341549557,-0.19559273200447477,0.20849123786278687,0.20959489936845296,0.3750171273172086,-0.31008365764634649,0.48966426387332973,0.61009965865887461,0.96000835609019652,-1.6757346864306348,-0.47132992835712428,-0.414671454453722,-0.78857068505215433,-2.0098727999143495,0.13175112068256192,-0.45129990781745311,-0.036949348560508695,-0.4585646017669176,0.070344914112119836,1.0755715569608124,1.1816866207713006,-0.83558381027561657,-0.39143414678314575,1.4124180146846608,-0.62454450299276232,0.95091178800306841,-0.28712853881957939,0.28418318802825548,-1.3322672643826468,-0.87897776448215004,-1.1751914484298989,-0.46025448224021293,0.91791507509685344,-0.17584957985331554,-0.60582532976630465,1.2004027318863006,-0.48228995710807576,-0.057392816156151764,0.91165198978661555,0.37139680483999266,-1.6087363906977492,1.8010026145239499,0.34421403569431319,0.46884023768756167,1.1503416734778753,-1.6805985656647797,-0.35654043371840549,-1.2290807337614362,0.41827075950094694,-0.44345909624867463,-0.47769538722884564,1.3408637301464046,1.0995684814244584,-0.12824491843014371,0.36780735490036243,0.38480608447219028,-0.43365553364888809,-0.56080525512681045,1.0166081827914959,-0.89517593668628404,0.041913684963063837,-0.5924902304937999,0.0018937893716601121,-0.5972871170816173,-0.55726882071302719,-0.38378518842927595,0.43520406673594531,0.82943001917035519,0.07282190681489531,-0.81831986006497315,-0.08484975253561905,1.3251343103055648,-0.93206875817298263,0.88855586741694192,-0.2714699396951043,-0.82781177581440002,-0.56388475214463751,0.08884970229882358,-0.15462900937743324,1.039263459078797,-0.83495257329038897,1.1533285966534812,-0.46455614246420346,0.46238730313742249,-1.4015143737591218,0.077911132606122313,-0.28674781222946316,-1.3132593589941621,1.9048981703655257,1.7491101454903324,-0.42465755600961513,-0.072151567912559472,-0.37847375517007531,-0.44162923306552831,0.023259494448335364,0.60412979750982299,-1.1314224634894792,0.26921552134840554,-7.0837257737083926e-05,0.033517164442933761,0.40185748576842867,1.4176192255567457,-0.73493824162364474,-0.45813801093863638,1.2519683986743457,-0.42087074539581881,-1.7496857128930807,-0.17163945858090909,0.90504439540830062,1.3250350906577901,0.34090917083047306,0.13458967409990941,-1.5930628019777886,-2.2749080270702988,0.057314646062665557,0.22659333731970013,0.10223269842794988,0.41957181918900033,0.87692197206101019,0.60701229743979368,1.093157941398804,-0.37571846898255051,0.071287570174531287,-1.8103790557690314,-0.3544918791806243,1.3305560400229248,0.9448632955859313,-1.2810485147787445,1.412779295913104,1.0688020693923994,0.17640008957045808,0.74427187296066055,0.41133770050200119,-0.72366940466055862,-1.8175654665980103,0.52116001328953554,-1.6255550154478251,-1.1724383275531574,-0.12517643912438609,-0.96007448193967415,1.8899161733983934,0.75964493706045944,1.0811996571684435,-0.57294422935501055,0.43552054279872654,-0.093907542799778476,0.71807860522662315,-0.33701371027083865,1.5907180942231913,0.72217248092968656,0.29946892335217601,0.93223612783455956,0.19496670321453874,0.6119987512203956,0.55916716203452355,-0.21658106502226473,-0.85422727044589375,1.0215210625577174,0.21320359080608589,-0.68928345782986356,0.098940936925580647,1.6653576490359046,-2.2257407883074061,0.85032251126625713,-0.53390368914869402,-0.019382776799530436,1.4388833952196483,1.4007402389898604,0.69565994879171755,0.75572228485827331,0.2450294900493232,-1.2857281393888187,0.037148921250389946,-0.88440676187604894,0.10200238264335296,0.097486824370337899,1.2451842095104326,-0.63692823526356002,-0.057747834243011352,-0.11308983187967843,-0.55371218643149933,0.27063781138954351,-0.26736878346989518,0.21760208694876537,-0.15203137153744645,-0.24821746710332035,0.50904165851913885,0.9852915597671148,0.84406205709454474,0.95961855485053693,0.94328620863015233,0.30844890703028049,1.3273392967976811,0.13265954406475958,-0.10592030932372391,0.33650313906147555,0.66613297882920941,-0.83446666892139809,0.02156134533479586,-0.1970352994327236,-0.2132333384072618,-0.19104085489231681,-0.021614875760153935,-1.5792455441076976,0.0090831215594664623,-0.7301950614348145,1.4175856679977148,-0.29915890173159737,0.11178219385616535,0.80866810598505789,-1.1126276485863038,0.47838044204412328,-0.0038910091281426735,0.54031064494284409,-0.64542760717139513,-0.11901730405899345,0.052278114317704627,-0.46599680763420298,0.2784932279873279,-0.70428923334360405,0.59132802183519384,-0.62551204980988917,-1.206741284961703,0.049783535856949064,1.0385014702903295,-1.6678607875327982,-1.5190955425723749,0.64631491103968708,0.052647569196501029,-0.1991242297008578,-2.5539072161554568,-0.39387189803664757,0.76906747366651429,-1.4102640819843972,0.79407376837272536,1.8704338013096449,-0.024570149949405345,0.45005698326950061,0.99701699360965623,2.4323865764640518,0.45288450276024311,-1.0777632204627448,1.5414142229415113,1.6953520395794652,-0.82533172572379576,-1.3243594901882481,-1.1564619157979614,-0.62278770239115944,-0.49179055179011627,1.8010030917273916,0.39648784471632753,0.59036332993768392,1.8609661554998462,0.19704582309751564,-1.4889121628843747,-0.16910135573619248,-2.3006315121446459,0.017175347478158666,-0.7186498463892661,0.42577023959360316,1.2816946118507389,0.64577124966828636,0.27484555594100429,-0.63530621528462694,-0.046011173554761871,2.1871717996779911,-0.8263270740107147,0.88239248072339804,0.28840687838099494,-0.50347701802830358,1.354033483744671,0.66748718093307002,1.9903052442216433,-0.94891005905937342,-0.15504879293494947,-0.42056962529059666,0.85913057104745449,-1.1126829213108747,-0.031849161798892293,0.86931147335931647,0.59449627042287767,-0.19580244245816217,-1.0391100315672388,-0.52331814238478114,1.260582696409867,0.22562167159577107,-0.62709467516634865,-0.45216830406922676,0.76495996988049486,0.33310688668714933,-0.88323322256132142,-0.22873350947135529,1.4902095527264636,-2.4600924284308214,0.095072041467626767,0.085620609592551938,-1.6012305451129178,0.37173922316015751,1.4986582833081457,-1.5475642503842288,-0.17421499352544231,1.4314625369467349,-1.2780136417597188,0.73106878992314306,-0.58588802223054592,-2.1666265373652607,1.1322915393069997,1.9170540332438104,0.073910412451092672,1.9305371576429347,0.70721922334875065,2.0796532493722246,1.4194457179475803,-0.80684795424393574,-0.37568684385131851,0.65804030221251752,-1.0394491731328617,0.65232845551913088,0.30848765210198564,-0.17241295958304709,-0.24159233834768415,0.32209864194514098,1.0551466128626026,1.3912391190645421,1.5451198139503419,0.55728050011198504,2.0293414096365074,0.27374424952283311,-0.57966646926930709,0.14770330819797853,-0.27623954511279208,1.7222730604311678,-0.62083785518676449,-0.926051304125594,1.4687175153960008,-1.5148397550178412,-0.30915292607231049,0.5773866812071331,0.92755207636035553,0.23025048127330749,0.61329215172517115,0.19208029483964506,0.83544346417529503,0.0086683514292524438,0.070483278112985714,-0.20889067139861447,-0.71643525628295368,-0.405275174412143,0.23392247127258878,-0.82583798592545066,0.54313208922643308,-1.3176000760750093,-1.1399770931598554,1.1356123240924858,-1.8266942330693843,1.1312619906050592,-0.26695952573065257,1.4268056236845621,0.32817097879894663,-0.17107894630859644,0.041525767983625395,-3.1671197727122604,1.2971451654533914,0.30607627697630074,-0.58775784811522735,-1.2786264458487078,-1.2551078872349581,-0.073703594617833962,0.53703448608870763,0.29025283329741347,0.59582528682232716,0.27734027850497939,-0.31949512526244406,-1.6373865963451866,1.2424445086946032,-1.9563359476087494,-0.50600694575044514,0.68617746351449116,0.8824922450075483,0.11191651210045321,-0.084125022983252182,0.57758188542667133,0.35541824821411233,0.030577225694171151,0.65477765451956405,-1.854087138584676,-0.95726273053556354,0.49950349445512243,-0.52172053394650453,-1.0265737852139787,2.2282485637941964,-0.98181520757015395,0.14185781948689266,0.60271336866840364,1.0273201653724413,-1.2164004489893547,-1.3779310023751299,-1.2640153470393944,-0.36045272613809853,0.30290647816826166,-0.13804285879912667,-0.37529399805695485,0.3615047671524747,-0.10639132713781208,1.2798484333212099,-2.0564731061198041,0.54731863808417291,-1.8781729915699623,1.01586734784221,-0.10021384039231462,1.883412432560245,-0.17435120186100458,-0.84060958640985384,1.223017874287273,-0.53546080854001388,-2.1413298629329343,0.24053552440779796,-1.2321728465832529,0.76051957301458473,0.38549136630729375,-0.23572692214499283,-0.48452958524696332,0.23309781502271809,0.65809279853236469,-0.87686186554724577,1.5861539542835152,0.99030627710194141,-0.76249304964591424,-0.83198812314955239,0.20265004996353098,0.31366833613849499,1.3400780697592236,-1.3304576405184267,-0.45328208209778087,0.039829655982183694,0.16982607063476876,0.85678070429477848,-1.2562816340214928,0.2616404451453902,0.22373191046313157,-1.5816411814946969,0.0085057125657555868,0.75510489820495963,0.63059568846312142,-0.02514109213662237,0.53179374076446606,0.55777945893195757,-0.54986406523006681,0.50128717844274517,0.28473555685886259,-2.1245872492263516,0.69804975043736717,-0.19094040086186065,0.30163127014210234,-0.18729777219072188,0.59564497285974005,-0.63145744337137133,-0.55704089832739712,1.8195733120749777,-0.24527009855060913,-0.36001362163648476,0.54822297796935338,-1.5421139287072803,-0.99745658955816552,1.5852256023973457,1.6833768870590571,-0.47475149056484656,0.73027493540867094,-0.045198016271802373,-1.1317467005214312,0.62521190671428695,0.30546710389176918,0.43693204004791625,-0.22265421079787467,-0.51044781697654162,-0.31752581618500986,2.2071462955834131,-1.2321324515773682,-3.1723122877362071,0.24028512974651023,1.3001350562555538,-0.22274300179753695,0.33789863522636071,1.1132613912011917,-1.2065329902031561,-1.6658480452109505,-0.8810276774161937,-2.5297076795968723,0.53453746914090516,0.55595673996627004,-0.57700420941835717,-0.97109703512949508,0.43438554266658669,-0.99600648221176524,1.4556452560698501,-0.53608554455542545,1.0084085737182196,-1.5158472016525415,1.0747958186133142,0.15779956782234184,-1.8080160199468152,-1.3239461270847399,1.395843313580855,1.6950164949410043,1.0153711835961232,0.55818811680962055,0.52489410231594791,-2.3312956919835619,0.23205331240445956,-0.38051009219437465,-0.3870852419207651,1.0401335591618066,1.1577010642874146,-0.037788475066646836,-0.098139078949112057,-2.0153925131418222,-0.76307191436020616,-2.3634144697097623,0.34291154698331805,-0.98744455459824299,0.20927502609234627,0.25301794513343373,1.0216669606989421,-0.4646713102025663,2.045529757982345,-1.3564231102296349,0.92392969349522913,-1.7329126526180092,0.20707065265905369,-0.17135152887595409,-0.75728786112381297,0.95580414433355831,0.74597526118336832,-1.3030250193975639,-0.39867936677583432,0.69141184622545138,1.0355252849666887,0.47745889903713395,0.3273250586614076,1.5885431340585574,0.19541504802905205,0.30833079930786866,-0.020900695713197123,-0.12416448714735612,-1.1869893219161061,-2.114840764592322,-0.36518712148608651,-1.5417669313319728
