-0.076889658286755438,-0.74305891809524782,-0.16537453796134574,0.22389765285926486,0.43732350497241146,1.7807803378224283,1.2618224996892928,1.5154832827830405,-1.2503448844054854,-0.45641624078819976,-0.62890004017782108,0.88648024851320961,0.63504616117876556,0.72378015981676191,0.086580861762510453,-0.60533399164704071,-0.44351909775884557,0.36387260614964184,0.30280516108587685,-0.042212599639276961,-0.46904373814828215,-0.95074157383412117,-0.21520804038229605,1.0174873503751509,0.47154974007254591,1.4349679104704745,-1.7619279725496337,-0.89294345882572235,-0.13516446398136081,-1.0685466535080028,-0.14476318561391335,0.57133660176176493,0.59566270778069907,-0.10915958260314143,0.5623089793417978,0.66899819724664555,-0.36536375790555398,-0.0083662709675103517,0.53279415047727507,0.54737776981379316,-0.1870677609193499,-1.8881530927013732,2.1089915928518352,0.15642655619138612,0.24422935676069105,-1.7294286410579127,-1.0625023908289599,0.20741069208593504,0.10542239948014885,-0.011716940634895727,0.06962476787746405,-2.086042178704294,1.3625023248566273,0.17931686163751243,-0.12730758992528043,1.7442233442434338,1.2058500661239979,-0.077805806584642298,0.050015805938725462,0.55746486963848196,1.5590225885068092,-0.9832090803051311,-0.6412652147054605,0.45297428716344923,-0.54375337754853403,-0.8587330859637804,0.64985660450766836,-0.13440826395205502,-1.0658347451051213,-1.559227937840767,0.2483722749505331,-0.069639074380693361,-0.17481064926290282,-1.3713000438323675,-0.13633740763900004,-0.66696609349845393,0.11723345695352702,0.0022340620857909271,1.1307305475902649,2.2355611888731355,0.77116439380689272,0.2861021707101406,-1.5062530205103541,-2.7171861222180169,-2.2301956187183078,0.26201447473464889,0.95437542937814179,0.27478594209280788,0.0089260637153494304,-0.35558783447337361,0.10054355924735608,0.24301445756119455,0.20978864632870167,-0.48921225570198412,-1.858078610790842,1.4838004699823735,-0.78818366771549175,-0.44047772725076673,-0.23364028376272519,-2.2252263767716762,0.024205809642593768,-1.4862062092668882,-0.66588011904527789,0.085540640928045392,0.70410829212745984,-1.1888235008246635,0.044041083733057811,0.69621969915836435,0.93785340922850546,0.18095037023221233,-0.15323803789302662,2.1849193867430734,-0.26286625731746194,-3.3199416887538726,-0.71862856074594972,-1.0954312743382817,-0.41616243303879713,0.50512634512211319,0.033914555951303438,-1.8935107756268734,-0.26350266754539386,0.24874756751850902,-1.1561872936306026,-0.88186571408014036,0.34936993208978367,-0.55803325441429696,0.59841103187202527,1.493475453639258,0.52125379475448974,-0.38781699884372273,-0.3020224536595007,2.4858951385835777,0.55623452965684472,1.0963453527057647,0.71848408895214999,0.51267843811327873,-0.17306149502084409,-0.5320618898544327,-0.93524114863121111,0.68316432240435876,0.03804187999348467,1.6385237636534524,-0.8552046190659055,0.2715801108094712,-0.14451216189317012,-0.48683117538060544,0.34003235791895264,0.96863821670397277,0.29576855140082725,1.5841957421417558,-1.7616226576937972,0.41403604408972206,-0.5813147221777506,-1.7018263972245611,-0.57038836577188679,-0.3923005170305211,-0.96508181998984888,0.16151452379290013,0.14792084132221359,-0.78804486466099577,-1.2135607108551894,-1.7874280714529935,0.68725650726808385,-1.2914549210174961,0.58330846932773506,1.5016413255837975,-0.39008078257931139,1.6595646667183579,1.2978437365218172,-1.2702009925280826,-0.23324632510573029,-0.022512680516545387,-0.50590496415783115,-0.4622240789228339,-0.2756872739680073,-0.81307113260135988,-0.26386093627528923,-2.1248031035949615,0.70437363936697295,-0.1495430795426955,-1.4978391112422562,0.97986687929272864,-1.2272450162608346,0.0068928334862506709,-1.7312242111578904,-1.7891081734917764,0.10743540299102605,-1.7639110310770636,0.74045014918964169,0.38504465423458606,0.15691393885054392,0.12494240995946369,-0.1861436588371948,-0.55721416606967722,-1.1564094016090758,2.5065885204452854,-1.8709298319629017,0.38861659364249218,-0.68203611139891929,1.2229462856852933,1.1246352731048508,2.6656550639451182,-0.33918365848452536,0.54877963626556836,-1.0876851275211727,-0.15500481058260368,1.8327536110581348,0.013641858830212489,-0.53572091911911979,-0.46059838127575747,-0.43827330925583757,-2.2424502280933316,0.62172767031986931,-1.1831707341175299,1.536399363262243,-0.37515115049363201,0.13361318373042386,0.18626080635740389,1.1729220395279025,-0.29270570547711489,-0.77235630954532752,-0.88309994452616347,-2.0609375044450595,-1.2895283333966854,1.5971789657872402,0.13192493963022361,0.97717544318103167,0.69327920161305367,-0.31003088116997662,-1.5239338240203189,-0.37994752766876017,0.72572255932226892,-2.648584673476774,0.72770709210367845,-1.6991285052911334,1.4581756591592081,-0.82138294465398742,-0.63055433920572246,0.33361193578821241,0.040628071250605961,-0.32223194933808635,-0.58566590372602267,-0.25308581130896446,-1.6615091181555091,-0.87187234207739472,-1.4692222757589315,-2.9910948658099112,-0.21399170029266112,-1.3208054463010976,-1.2636893014238844,2.6065415450071008,0.92911289820654186,0.36956771998504095,-1.4677183579150586,-0.17771116972620668,1.3571997556322088,0.19514775204121046,-0.64914197684367536,-0.48634633343366512,-0.51913832766862711,-0.3750761942955918,-1.9638481680092785,0.82542320977051875,-1.6688621649618711,-0.80997123672188631,0.90562700423203957,0.39502385612899277,-0.36822147986433351,0.05076709879446005,-0.78530470262293339,0.56394329339080496,-2.117150486932164,-0.91071310679592332,-0.67382812789837299,-0.061127244345616505,-1.2009631439444528,-2.4610386486870288,-1.1272297813489605,-0.45640763881518381,2.2209641692074933,-0.84451926671867161,-2.0296803827403704,-0.24544261136032131,0.07289194888158132,-0.32039593252522047,-0.86769613249251409,1.1952127222021012,-0.16772749683572624,1.3808681052670664,0.1859153609990469,-0.059376718661177087,0.17735286678254208,-0.4492347071291436,-0.56061609922394962,-0.91276151883001655,-0.97711455853996887,0.10626868356064287,-1.3118943459208006,0.40580581892026357,-1.5055254528809947,2.030026083226498,1.6472298156121248,0.26023751221481312,0.093943835699955042,-1.4934867209262468,1.5111236928667298,-0.81629037896907097,0.026602468588561957,-0.29171461819536709,-0.27313067915820682,0.43458083366388117,-0.38123073126237145,-0.39565411957993274,-0.51643452825379588,1.2646946304964535,0.093302732808345598,0.28496381581264635,-1.0810119444355486,-1.0579646340466362,0.79287079103560432,1.1785033860636227,-1.4899643843038728,1.9161062335248047,-1.1229498009147847,0.41223241105991976,0.59684479593468498,0.2773719356692938,1.0487702390812343,1.0467179965489004,-1.7701938084790896,0.10123034551049737,1.4980463706864473,-0.892876797746878,1.6210792670635898,0.48950404715801304,-0.6507578088602709,-2.1199013608024573,-1.2215743726218165,-0.17232237842540801,-1.1053382824441313,2.244438062711684,2.0283135084039294,-0.48779537494504044,-1.0082557251318609,-0.14219487334283745,-0.72000067064443607,-0.12842672488171933,-0.3015256186863387,-2.104248659914949,0.56225735911710351,0.34886469999567432,0.07863450150914611,-1.2337245602410625,0.092701295336224454,-0.23525113755116012,0.2440273548295166,-1.2954749530033995,0.19048578361300447,-0.080346575012290491,-0.52886175274386382,0.12435606242157107,-0.40723161444658718,0.99174352940427746,1.122074060137878,-0.003339750699554089,1.0464783072684858,0.099074689438551578,1.1734393873699465,-0.98490414907094026,-0.74168348473109269,0.30708851635849227,-0.28437335603652758,-0.14170413536190721,-1.6392466661509006,2.9934987256716372,-0.57448815732023761,1.1755677397992264,0.039506097436103067,-1.832013787079259,1.0044736812973964,1.1332400456099778,-0.274106944434097,0.88886362002226826,-1.0128616903081491,-0.54370179266640051,1.7972410222992499,0.31760551809998228,1.1056377455597926,1.4121517414837721,-0.9440783035805701,-2.0930896269795682,0.1828292724022833,0.08368716475379756,1.1090491504139277,-0.54446593313542135,0.32243101372885635,0.76354869919599011,-0.44262199204612651,0.58471211078357177,0.34229439649981686,-0.38114539968679728,0.2130359277379838,-0.16803705253441878,-0.44615073723794263,1.3527487687781385,0.20629916750010929,-1.6668441127378621,-0.21310083059602497,-0.56636301663873878,-1.2262922598436514,-0.68044000336704247,-0.26445527451889345,-0.61625642003921088,-0.85524871691390392,0.50868587078668104,-0.64468554765317465,-1.9613244992486969,-0.14899221222298548,0.65089325878008486,0.11601590117091735,-0.37800218731155266,0.71399650147863336,-1.179591298270023,-0.46682463018262543,1.0246805792750759,-0.45308258458090028,0.058609189937632575,0.61397805393714866,-1.8719357293451326,-0.33361211978431005,-1.9509240221397568,-0.16298884627308508,1.2152520457158271,0.34819491341673797,0.38502548507275441,3.1295530410513761,-1.3308789251584356,-0.66576646186181343,-2.1812893635917892,0.35971767181786368,1.2545416914541978,-0.061109784265407731,0.6573512551965649,-2.5316154429693656,-1.6451673864604988,1.3329034597649092,-0.31124643660085649,0.92818063474172952,-0.14604272144867653,0.83730626685697107,-1.6492706051433705,0.90788583424272307,-1.2264792103850068,2.314647350801442,-0.23781335067257073,-1.0871343380997933,-1.3305872819386939,-0.28975968034738186,0.68290573996982284,0.29939740778115093,0.31332864914068564,-1.1039770177795467,-0.47209419103281114,-1.1626381270427537,0.4558334115892208,-0.18133766305132676,1.1312425395934564,-0.91736934711588314,0.053852028167008577,-0.54687084676811648,0.3563196336164865,0.29439457368807065,0.54606326612924194,1.1768334201659763,-0.0033058605422769307,-0.4425215910270538,0.052336809295007891,1.8105640977116408,-1.8044003735698613,1.2207794329287633,-0.58493682350579068,0.4580719952622988,-0.5104545835688441,-2.1136318862218388,0.087137644388292426,-0.78857443298903207,2.1847054076615984,-0.17136171079068094,-1.0019633807782857,1.0283651685611483,-0.074120096212421896,1.375001137393099,-1.0248548267801889,0.46831914039624312,0.31493556215883745,-0.28030661243309352,-0.52838031757167703,-0.64091150855004642,0.21690721896576504,-0.088538261325301779
-1.0701585043885973,0.15031859918867929,-0.025139330013072992,0.59869560914834508,-1.2643403911584641,-1.5134240842238289,-0.82845359797194595,-0.67858533967061496,-1.3479013368587982,0.33684503048217429,0.16182458263226851,-0.28546442650672277,1.976883746813618,-0.12547977924890322,-0.14692696814506553,-0.092611536016332888,0.99112494301524889,-1.6669432757873619,-0.6899048444089213,0.5556822740632732,-0.94931039457646504,-0.47721697526532991,0.12808222549940262,-0.899650285239187,-0.47560888137100921,1.6519606223696048,0.31647978417948552,0.56040711889584782,-0.44677289672011955,-0.78384704730770971,-0.52627275679445629,-0.68003133079575306,0.33185669547548557,1.1130361349532334,-0.6002248340142311,1.1174921413046817,-0.074311576882126626,-1.3241881492541068,0.077669001199100016,-0.9220155952194824,1.9564627394359972,0.53821605329408118,1.5130365685677527,-0.15358592435418494,-0.89625746329720157,-1.0714600025869645,0.48470196253368619,0.13861881512181057,0.99277685202076082,-0.09778216667205307,0.32370162353737952,0.43584366628831406,-1.2970495647704343,0.73116316417849037,-0.78887113929710617,-0.51340344790211079,-1.791653806637532,0.63310716537410139,-0.11740922950550504,-0.19740632194134985,-0.69173670290686684,-0.66646873595184475,0.52593818467460496,0.88852902846765491,0.55069991249137451,1.1445763089311025,-0.25677743935213121,0.21746182347301682,-0.00086889606825578196,0.32990003163711873,-0.34952411440375442,0.83455093422637727,-0.014678080465457028,0.43037814796738205,-0.34393729443773063,-1.3584039244540134,1.3217455361624613,-0.70563925042720366,0.20966696167006638,0.16711763348702369,0.31996150034988746,-0.32805254236638182,0.62054252746979344,-0.096543319787399912,0.95572705805792224,-0.63716344078082265,0.23999443498941359,-0.87248735468640914,-1.1977190464227181,-0.90621965407266536,1.3932281908678259,-1.118935928921049,1.0512333378080132,-1.209087530555661,-0.78674856568459539,0.18315282631224719,0.3957430589860309,-1.8282039701420949,-2.2943714412274963,-0.92325578965294985,0.30802920851975946,-2.8888949798547294,-0.8884377688236984,-1.5341966712337329,2.9741501640505228,0.23675129510131412,0.086736903586589365,-1.3782363102520365,-0.18481746988576775,-0.67714477787549521,-1.7135679334629159,0.3302165353378575,-2.1419647224963914,-0.093066286066756126,0.13870859139852365,-1.3523086177141068,0.041260918991843351,0.33145212393598683,1.1670945641325159,0.67356416735597435,-0.66624039112920552,1.6103477305408151,0.035822464171798254,-0.34657680813432473,0.25927854766229202,-0.13918885239747786,0.38978760139509389,-1.1637550661084828,-2.2038572798256402,0.36627390854021341,-2.4374214181101226,1.728016098977933,0.52996166927480548,1.7120633329798627,1.6024157347563841,-0.12673416979821914,-0.99548570104144096,-1.4930597230999794,-0.70757567496303742,-0.12078034176944961,-1.697753482657343,1.2282551205773462,0.71515382175608466,1.002595139158682,0.6697186798590784,-0.18281476337731475,1.5448922924912816,0.38165229733733547,-0.29141857370462509,-0.94762514205662429,0.56374933315918097,-0.96501186675228634,-1.0479964374074664,-0.53485150296901385,1.4811558885297229,-0.24669873920169541,0.067071703845295219,-1.0492781460875844,-0.52717028289254897,0.021865395447260228,-0.58750691579587977,-0.28994522357648611,-2.2991790486113852,-1.8339146563292219,-0.18798998332862782,-0.76333378352795389,-1.8349756199551648,0.0016967658837800557,-0.83601153596237177,-1.0403417395463763,-1.5122894041495445,-0.8697468725341222,-2.5195421877584678,-0.8015908867010173,0.16068770284338688,-0.36664123753500888,1.1304628638100074,2.1331114132028115,1.1598519094144579,-0.89660088426835605,-0.47840117671463123,0.97474024408522131,0.56292546744166105,0.21573709981201025,0.42753221740594016,1.1166920439037673,-0.090524401126046206,0.68642404437511995,-0.31145143385402063,0.46995004410698632,0.41088182981729082,-0.74745911087318551,-0.46566213585118277,-0.14470473709979831,0.19871828371962083,-0.43312618544943188,-0.26224591990213852,0.42621569999448045,0.85898531180307658,-0.69809410419141182,-1.3307106287931416,0.89146849280910145,0.5392459114278354,-1.7568234513468794,-0.62707217864249332,-0.93860961453040948,1.9701825470507901,-0.28643957176689472,-0.33997809175421695,0.09717193657470756,-0.87939959949781066,-0.24298909856040693,0.55132896965511047,0.47738760386757828,2.2566768062859226,0.56288650348923652,1.286817064091262,0.64156160437108334,0.8127617286540918,-0.13889294423681911,0.62116318881349153,1.2370901645703833,0.70386521374059852,0.45073827616296752,1.974567505345121,0.45193094576446829,0.76410995685209593,0.32113167134511639,-0.33639905651891067,-0.091057508575269064,0.22991360811624273,0.6171109186140975,0.26452769495089967,-1.5849456497709029,0.42901654365101399,-0.61559490536312955,-0.21552644313330691,-0.95417230026990985,1.8167722368379917,0.70030780849661756,0.64864386171927846,0.20951939714148921,2.0614125426951442,3.2272506522308988,-0.079638773812029912,-1.167953309989519,-0.96996774507186201,0.99091037469677268,-1.5371602220559775,0.60124860884157572,1.776476365528193,-0.32364487394608688,-0.97051305821037392,-1.0051491933474987,0.41999145098881763,0.31067688165455398,0.46922581607306724,-1.2109307763149115,0.32967665692885145,0.33144843188476497,-0.50156502489592625,-1.4655458644725394,1.246727463178066,-0.5274723560113258,0.7857573042401127,-0.68540256539715161,1.0801336064962404,-1.2971348115924608,-0.130543164675191,1.7348701000470348,0.78370013949200112,0.39340038911169273,-0.39055326595908163,1.6730099416696131,0.079369477827113011,0.39817195970430536,-2.2260555693696236,-0.28466441379803947,0.79106153887619446,0.31083648083556814,0.74476673504131929,-0.72459075605138124,0.63765535301592202,0.86006459765153054,-0.79577285080073068,0.26518209124912973,-0.1295503375913879,0.035928896267752003,-0.11384494387971825,-2.6588519235700425,-1.0491786963733229,-0.63627199220086439,-1.1419305605560259,0.82080172372448024,1.3309832317562547,-0.79083709560109094,-1.3299003570232089,-1.8922337148445296,-1.0515379147929222,-0.098653536508513898,-1.2022802701466988,-1.3352933264576792,-0.64351693372142593,-1.8300730838479196,0.08744399429672213,0.85455191735612535,-0.67798411831886241,-0.75598420526627386,-1.1635039742022786,1.081581225583085,-1.0671048600036674,0.73174185975275396,-2.2855480187643602,-0.4628818356924308,0.74133277291519406,0.42703962563560754,0.85043887166349597,0.39873213159234738,2.1425497580550728,0.104257838787899,-2.3019701269931869,0.0093429662388637823,-0.97638396187092547,0.75898368472210986,1.587058803552801,-0.064776255215929307,0.73328246145053433,0.61824459561262446,-2.4058855446450349,-0.47215769404638014,-1.0112243712425961,-1.1222907120823664,-0.87586732569106662,-0.46743441516100032,0.40303163094308214,0.15313162586965404,-0.33773247489712088,0.38704187224042286,-0.27596904214377072,-2.3736565724920329,-0.058039056145758133,0.3310052856240428,0.83234268773925579,0.88446043290375054,-1.528358902519781,-0.35457973462827269,0.019353714041130458,0.40222101674632149,-0.31827216249339824,-0.72136433131419109,-1.2928350508835711,0.67456785679005093,-0.76384839849593034,-0.8771265316185437,1.4656505354655167,1.6263237467895444,-0.78383573645703475,-1.5735125584111249,-0.034448205345352902,-0.68858467694704761,-0.61948041040687785,1.1239999998210604,0.30486478117710464,-1.1110344241229175,2.2223446518475796,0.65030012076009747,-0.62157436345449901,-1.0636101613483782,1.5612498303043456,1.6096738749414337,-0.56407436545441114,-0.19966835029385799,1.6930067980062922,0.439168991607291,0.026008892388486197,0.33362879817522639,-0.12881196364233194,0.15546591852964409,-0.57958893115620014,-0.34826253815318764,-1.1493188332065569,0.31346502156514011,0.090935099406914813,-0.26363802765139105,0.92566081966867331,1.2757555319299558,-1.3749825587309554,-1.2272493009431411,0.44245103077384262,-1.470315777716265,0.24182075259958549,-1.2540167251803447,-0.42253264462091761,-2.089698151236004,0.22431683798582377,-0.81326694327147264,1.0623297134710676,-1.0021168308959343,-1.288213422680816,-0.55746642285739123,1.0567568965744358,-0.61348506256550872,-1.8222857396534413,0.3241635851565331,-1.2421288050069081,0.70601877705617677,1.2033000805350058,0.3420530642905269,-0.17978316771713523,-0.75909804296333305,-0.81745586648333146,-1.4626761915672652,0.21233380130720336,-1.827753104408891,-0.26810013795080073,-0.21355086351526581,-1.2025532024205379,0.17479854015346469,0.84212101385700533,0.35223417342254126,0.51588396227711775,-0.50378914473598535,-1.7681528301618128,-0.22838384866518624,1.2748727415167029,1.2354310921517155,-2.1564768636709717,-0.19180217119238793,-2.3582802095698288,2.2306865933763023,-0.84939460259776245,0.025404696455031985,-0.052403969790678871,-0.079251993969896267,-0.72677682484893735,0.086054558211014834,0.090848880190905076,2.442711048575581,-1.3630322163285693,1.6279179345963173,-1.7729798792645899,0.80440697750171219,-0.095153523293598427,0.45938957077063475,-0.85009677987831689,0.14011063165901758,1.7791441303697964,-1.1213155405824071,0.71170555432882676,-0.029805441036934249,-0.62116011812265026,-0.96386985424156535,-1.0558537097095881,-2.265820164639583,-0.77105818701036077,-0.16059683956503698,1.9296812932693814,1.871729767782105,0.72314677569693198,0.08192637630257614,1.2844648029637193,-0.018745392460636248,0.74985742278685052,1.0072942551124391,-1.2793777372559207,0.047184270942727653,0.31333296125592258,0.098437573886990037,0.88870491522808381,-2.5581584464658595,-0.096999441360449259,-0.76192858063484448,-0.41970077713961201,1.5938493274187835,-1.0974522545117826,0.47972526396646858,0.011845524433528796,-1.1836172749234568,0.28268537318104975,0.92406175626588771,-0.68162709698825685,-0.89440450757982004,-0.90028078465552852,1.208027740641006,-0.098412432245854289,0.79708690411864602,0.063378499670256411,0.1077179573045428,-0.21173137137247744,-0.92586790556316989,-0.16451439742559007,1.4546176826041013,-0.9188147700791004,-0.05568903704605542,0.88361134180452094,0.79616191840129036,0.4363934281418233,-0.57527922918900676,1.1064751899614764,0.022672303257239679
0.54082260473539878,-0.88319043940781483,-0.66984917177485159,-0.020805154876392715,0.0043786431570558377,0.29246009422252445,0.40074700927664147,-0.77451266569698107,-1.0358688217779972,1.4438956044219289,-0.22800530209544118,0.11334672152036383,-0.74264064640354011,-0.7709692160060494,1.5027894412679736,0.13480137888957763,-1.4503426425119994,0.72353062414291214,0.016791954093213855,0.29344889578675581,-0.31637831911761577,1.403944265434327,-0.92205397143350598,0.090335034377530238,0.42120861765474416,1.6373147334065528,-1.7779390125433865,-0.54888329274627434,1.4863747100302971,2.3412277998727733,-0.56757819001324561,0.78982789271376008,0.97330997549135179,-1.173745194023897,-0.91815664587512535,-0.30310094247384683,-0.044637866499949046,0.26653228631876097,-1.4113236118704462,1.1875717823044261,0.10733030074835159,-1.1285927870973336,-1.0953504523154907,0.12493135585046612,-0.29761334788163002,0.28017562644026195,2.2315388245307388,0.30824479244943631,1.7039490558941013,0.70280579556755496,-1.2432534794089893,-0.22749590794732885,-0.33652850572247911,-0.43277020116985787,-0.81839131274020427,1.4593704714055513,0.49359833724150481,-0.23593666485375722,0.99452431485588055,-0.16443408775977281,-0.33374802902422501,-0.53773885141820299,0.90800096581384693,-0.448999451779587,-1.673733462548729,-0.80565203909524108,0.5670451150327559,0.60298814975433579,0.76482213021669032,-0.10399267858099409,0.059518988651594086,-0.2640773202611284,-0.05105790388952447,-0.4167540830665763,0.50349414511887924,2.2837584458132687,-0.59419299139866699,-0.20420090946659666,0.48358453585941685,0.74674021650201061,0.31218564222936801,-0.66410370936992624,-0.72201917441168317,0.51916126842163912,1.6252965015242107,-0.28334579056875653,0.62348894789037634,-0.82220606327543833,-1.2908506602928991,-0.83973888586119239,-0.39213176356940599,-1.5917283478754429,0.56594140908976787,0.20673123278803238,-0.46971141773192698,-0.27685182770703115,-0.59247647669862824,-0.56636319150023373,0.68901288786593629,-0.23864330515097265,-0.034221871660173271,0.1728934600082272,0.77203371529047404,1.6187801765562493,-0.045234061322911939,-1.2849059334087665,-0.3659759754181971,0.41501154105163435,0.089913747173880704,-0.95913778980668019,1.5906509080783655,2.1578233550762254,-0.44930442296326961,1.2133591324172794,-0.87017882049297712,-2.7413536995847965,0.90251835379918466,0.65111099634244773,-1.0676731187374573,-0.42919477318166926,0.22816860672194489,1.0345119481807707,1.1309397219027533,-0.50046826714232129,1.3355544983239009,0.16844152891390068,0.85983007806900447,-0.79680516052150774,-0.03330737877055362,0.60247580090858766,0.7367412175091107,1.4832605664719929,1.214692556487343,0.97124066683855559,-1.6296926577208708,-0.54186583099813568,1.0125009438007992,0.90249690182124342,-0.79176759552429921,1.2049329691268986,-2.1321750798815224,0.39715304179997662,1.4567376968927239,1.9520214200519526,0.59122741421588942,0.64248749306917385,0.38226500604550101,0.55415264445196333,-0.61760111954537433,0.097070457321051948,0.53048501306931661,0.046237415545672726,-1.2442213584008959,-0.25531732545144042,-0.1612868195235117,-0.4617907826930307,-0.9493356802539763,2.5558725279566232,0.74415383228540277,0.0082442159492245905,-0.096017621699279812,0.45599253233505088,-1.4696806537539635,0.20556532423110863,0.38221057663618468,0.14612045037635316,0.033778216064109093,1.3076891134236219,0.31358491471849465,0.45950092007666343,0.47412156409371203,-0.12166812462907078,0.52582974981631192,0.1514421372549323,0.66872796910127663,0.65379476457119778,2.3020772018143676,0.7853586894168223,0.3648670829338711,-1.7694092989548487,0.25812338714065197,-0.92937546011409966,-0.050300737759863476,0.12995135778657446,1.6233422348940918,-0.66045578100977831,1.6413909404036315,0.76943859323393549,-0.099030683266290886,1.7128519513064215,0.28258843757153335,-0.059514643029201127,0.72468172504462403,-1.6778436640078351,0.015253858614692511,-0.31706938205039698,0.20633142375625591,-0.22946207051637968,-2.4230658506196323,1.2161119076463853,-1.172109684773905,0.79830892202530057,-1.3050654077963595,-1.596944078361237,-1.1065922611042651,0.84360459220239148,0.55646454817309776,0.3445080152394851,-0.42632737354303951,-0.15464202158874016,1.0079419802578578,-0.9462545268450937,-2.7766804609748954,-1.2081089367855697,-1.1503070017346109,0.88772063178478766,0.17703770353716111,0.79663202892933582,0.1620695864369405,-1.3060971720310628,1.8584670427434697,3.0712625894049497,-0.74179734951868637,-1.0913305552202119,-1.2613934225696553,-1.5938779201008422,-0.70080244252306712,0.97999104337857113,0.12575678312534219,-2.0609071133790766,0.67658031350299663,1.6667874778388092,-0.062361111177392375,0.0057982688559536418,0.65462013261590701,0.15015921443962862,-1.3597615340851832,-2.8366205196720826,-1.1619367249989676,-2.312287504055961,-1.8674270037455016,-0.48338027428117958,-0.46758007034505011,-0.065790708560333463,-1.7257420304508975,0.3907550154998482,-0.44610091257007456,0.081855968262838474,-0.4554799871199936,-0.50862476324394756,0.86557235986282099,0.26782375604900499,0.5364550239161604,-0.70191569422952516,0.15714434532701196,-0.65733675260119639,-1.3351872174226875,-0.44788999874330854,-0.98181447255487964,0.71925934346849996,-0.81698485640001606,0.85840008417771663,1.8138028354195528,0.86359682048717312,-0.22660618794255158,1.3033090966742265,0.016600795228526141,-2.002824751934122,1.243785652214902,2.0052136887396554,0.76246616017929802,0.96359087671860721,-2.6989226978051306,1.4436207002677699,0.19622054737679509,-0.48440344995110218,1.1377481066559847,1.763818121120676,-0.62198737887740618,-0.30059663239847612,1.1768212719467148,0.64454136534414297,-1.0907086364132148,-0.026318894410831101,0.80385880230618789,0.9234682491595908,1.6867422556722196,2.0319159970450986,0.9464967994790926,-1.2490447929060047,-1.3790095611470243,0.38772407135366893,0.87955126082864665,0.81768067690191926,-0.88034644255160621,-0.60510828024613927,-1.8954924563897384,-1.6581587582651431,0.34581057269498006,0.6234807377503131,-1.0955830894481771,-0.55006246403517012,-0.37343692220077057,0.3171000276818251,-0.99846190789450495,0.8716061335569425,-0.33099727398348538,0.50935192576923538,0.21589273239426823,-0.057833498486161809,-0.33569644633903911,-0.053816996636768137,0.43303675253003443,0.22699400680393109,0.30612201014817803,-0.039355175311169638,0.59261030614284227,-0.89693717680373708,0.14388163943597274,-0.35870697008474489,0.36242973757882196,-1.6673557387925659,1.6654499026721954,0.5359168700893957,0.18633165473679889,1.819684050454345,0.21841167652066934,-1.9558159192557774,-0.0096673068479533626,0.050642213539698888,-1.2063760826135346,1.4076952542127763,-1.9873226654591125,1.340362663099385,0.99038235835128852,-0.75335711305570974,-0.75902051114440683,0.19116503950067038,-0.31359784140276542,-0.70203725710417875,-0.39584523168542285,-0.65927576351875705,0.23174511538608461,-2.9114882221688827,0.44298527891802342,0.50849167988886901,0.14454563594958358,-0.59022785256502297,-0.47095124241047498,0.40176317448202947,1.4288594780826289,-1.098663767272011,-0.098915577498535093,1.102356526983117,-0.55149334488256607,-0.65652191015008687,-0.083723453172167325,0.24856788314904582,-0.086481366195389028,-0.17289449150915465,0.075093783467900674,1.6646116869850998,1.0648088044550807,0.52305763007058248,1.7135323522974424,-0.58333923965060486,0.9964116766920097,1.1023691463821641,0.72828829572721876,2.1971913014274316,1.0762698715750172,0.095066891580281837,0.64524097688250359,-0.65708899027113021,1.1413790006215383,0.21435455306866341,-1.5500415263775738,-0.23418846391563727,-0.28483423804666474,-0.56497441368742918,-0.32462604925658195,1.3887447882460755,-0.13465587315680622,-0.54082620486737698,0.8245966063506831,-0.09894346633021267,0.37213434832444409,2.1174455786433342,0.50258049506133118,0.33539982338508173,-1.3658323970645807,1.4693216401597666,0.085568178099649617,0.68996024766413044,0.22419275576938252,-0.24947146131299111,0.01354746223337655,-0.098838171511988773,-0.5609224425637771,0.86408660673317739,-0.35483210685433458,0.46143555464276637,0.44255160824516249,0.25933843268639178,0.70739272290708355,-0.11578406243318257,-0.041726418874994051,-0.52741293999086825,1.2131449967931551,0.11737211853804322,-0.91921313046342568,-0.70477944584357377,0.98362005219177373,-0.60255439766218566,0.011739927557232566,-1.0081841022422762,0.44656434361261871,0.35536861770373052,-0.0099091522610538895,1.1578318660584639,0.9531148979446229,1.0632796154212869,-0.8249656101706061,-2.1659434833224407,0.85353065296830666,0.64490228068550637,-1.2235121535681301,-0.67946923303356699,-0.1950781603890834,-0.34151713073721057,0.33504871690835425,0.4439582105128036,0.19063558561231012,-0.17979544523631297,-0.23371539685912202,-0.21390706204396981,-0.094267367418165979,-0.27503456109582591,-0.38174887321723111,-1.5591417778141698,-0.13576968658562749,0.48765749976946376,-0.65008972221376671,2.0051738521894293,0.42032006954879514,0.94800395175159258,-0.98087521680321055,0.0082059796657945518,-0.45855332196454979,0.20791988251436072,1.9709947492311033,-1.5245036282941282,-0.36197915360908806,1.1480719123162046,-1.3680241501490205,-1.3880578440435505,-1.0740162440768346,-0.0076994475368276204,0.87714857203259344,0.62964833146480981,0.39742919160196177,2.1721630562788672,1.4739365918741352,-0.32347562481253384,0.38860265498026048,1.1518015256283569,0.14537346444156385,1.0053171298192065,-0.019624941336487157,1.0880882044878366,1.5885930573197722,-0.11378309469035763,-0.78297643612130186,-0.040515799253643195,-0.37779173893319323,-0.89723556899594248,-1.2623315676250366,1.3836290221568956,-3.134132636947855,-2.7715065660382292,-0.41480292125578289,-0.59196282479342699,0.97590404920372609,-1.451495951208285,-0.59324205368763649,0.8218398223414175,-1.2080987199308439,0.57196720926241429,0.44643699767096484,0.088068519910685095,1.4493038523390702,-1.0306692702371123,0.21344932010166412,-1.0021399665942357,-0.85630019114421108,-0.45445715100339679,-0.059251676319388553,-0.34173065636738564,1.0498577555323136,-0.99236349618822728
0.96542317948579925,-0.50206021493560482,-0.91088643914751788,0.88484812941118185,0.21428780469608691,0.31320105204958049,0.12115062972005258,-1.6892752823704409,0.43191122527369985,0.61973091312079376,0.66213652555922875,0.30178129124114333,-1.4530699079664322,0.41216121297707731,-0.75088623115468889,-0.97460061953163479,-0.97692980890189962,0.72165206186019615,0.082667474812495867,0.88256271432534139,-1.0304166071204062,1.0771896093605298,0.9526383105261188,0.019915212740861374,0.036081684753346929,-1.2972966246457449,0.67375913289711542,0.83998890412951599,-0.17119910678128361,0.7511381478919783,0.97950985357994169,-0.98658127659754125,1.3919963260671691,1.5973170848613398,-0.080130281592717692,1.0539129993823892,-2.0623461284710114,0.47203894179214279,-0.13128382009117809,-0.013362945053983836,0.53023120245366695,0.91345790814019434,-0.33232567205218277,-1.1729913653206938,0.42523093332774398,0.68209821740728604,-1.5400555247467242,0.99615216669065665,-0.26341287055712465,-2.0746908716391004,-0.69329045865922156,-2.2736509373819738,0.37377104478269985,-0.084978254577376261,-0.067335329337602334,1.7893672161528549,2.6273107320127744,-0.99751372571295271,-0.24388103754779702,-2.2329545408850429,-0.75093659544304658,0.74978137248899568,-0.14036988413010715,1.395183338380811,-1.3966849969222814,-0.22938055239295438,1.9207955305001079,-0.028092097233607081,0.86762338353673751,0.26144351539537491,-0.2661992689949873,-1.3285387747778232,1.2407305944412506,-1.5796931506511869,-0.045973366217888556,0.24974094805744287,-1.9015117319851063,-0.64964260065411128,0.3305763357084916,-0.10592695344268371,1.6831592472052548,-2.0207295077368763,-1.4475497088551967,-0.16716626296357098,0.35891351069288918,-0.1416987754070777,-0.61552191433590986,1.1834423875288151,-0.96334031776483142,-1.9388927534592273,0.58859137783387805,1.9617177327044908,-0.60184668211127723,-0.85446677399067983,0.50820539462301206,1.3275299394712612,0.028265168967001559,-1.13632508964483,0.51855554617198329,1.662296913526585,-0.24849635125728475,1.0086128788929594,0.92953500067340111,0.041040317595128661,-0.076701188388106453,-1.5939000204694758,-2.0867562356388465,-0.84801070323826977,-1.5301350571796835,-1.589432070235161,1.9395316487996255,-0.7503695315224107,-0.9573223681963704,0.92086345921571722,0.20860421270807566,-1.8750777600974933,-2.525031934431631,-0.085327100796130664,0.43467265557267987,-0.6491041779107819,0.44642420430596358,-0.14969519529376302,-0.98471647567459863,-0.15193184462204595,1.6160036974405427,-1.34429982863981,-0.53946931942656051,1.8613971879917006,-0.1355284129654046,-0.02263427696854187,-1.5397937516197588,-0.95936897724988468,0.65727918099425564,0.15231191084567811,-1.071453270397575,-1.7401167324130684,-0.24640701908401375,-1.057837828307322,1.421636356557636,-1.0831673360247571,1.4175717764856397,0.67745364786880768,-1.5984240529619287,-0.70184918590830425,0.13298180189674069,-0.85000323347975182,-1.3021603875889618,-0.24086287631139502,-1.1031632298340848,0.27498269902860756,1.0524421857745057,-2.3150418388898912,1.3265903983458249,0.98378798046222793,-1.3668841806408105,0.97690889759191513,2.1606886236145249,-2.5765667801303413,-0.22751033185441188,-0.49806254015180307,-0.30618925824148591,-0.83863144808618795,-0.26026912876009989,-0.56509300521689498,-0.37972141319286246,0.20019949742065463,-1.4168176178035465,-0.57577842885027763,0.24110063872215703,-1.7068316061875657,0.94199549849742115,-0.54450708639931522,-1.4384852887435706,-0.46538631800548336,0.29668911743587451,0.52902026935593227,-0.39294769419588921,-0.51900621154796966,-2.7109554484636051,0.31884584723801535,0.47851391949392236,1.2503400395323063,0.2203670947402577,-0.84682154697254042,0.50633513725753632,-0.96691917509001257,0.55831552563875597,-0.56975982431258543,0.5372672915727088,-0.58510137919329497,1.0788731458404921,-0.53395161873966113,-2.086657914619372,-1.6213447641066216,-0.22629522777784142,-0.90452642057104327,-1.1909297116038828,-1.9757172453643119,0.47894486711161394,0.97993957703172208,-0.52049532189296654,0.16471913493180254,-0.27795860000794848,1.6176357631018445,1.6775615566013944,-1.4995542815713685,0.36216035137889846,0.79281639924485614,-1.7665969298727604,-0.64525735038327636,-0.68031095378101591,0.3632009837444703,0.49854732796908297,-0.98746816452471153,-0.92207560360058261,-1.6125654927268118,1.2224334497112772,0.38008322423110413,-0.33247492255807032,1.0380174111679177,0.50618466145311236,-0.1860610038467182,0.25161363887626281,-1.1258920055848791,0.4251327629751841,-0.27532060245997964,0.5991397457757397,-0.28560675457019125,0.96624434076006982,-0.58272888672853163,-0.75278662259011053,-0.55919910474719003,-1.7184871814986289,-0.65964176952735643,1.4239917196407079,-0.34237150460176208,-1.2410942845037762,1.5988823150721325,0.25809247594653373,0.20809070584668971,2.5646117443143699,0.033539032831315499,-0.22270943541962529,-0.083240701566218628,-0.6299713258119588,-0.40774331468103758,-0.96843928312237637,0.033468658800672006,-0.024425793967806933,-0.56531631422591777,0.51002130587355266,0.72178005996080252,0.86570438719557108,0.58725871255319206,0.64815936806785401,0.72746346898812364,-0.68557184899394208,0.27801394713849398,-0.82927086359955038,-0.50194380977158193,-0.21360956623893598,0.51493574482090443,-0.81325114393164677,1.1158106394383196,0.53532311974451041,-0.19158378459344153,-1.641505339073527,1.4843817043774434,0.22830010688632582,-0.68570013636337568,0.79246438873479552,1.0926660349674806,0.44132889974492728,0.36796142578478108,-0.84896849275196562,-0.76439538329046919,-0.33847952378846219,-1.7050843981980803,-1.2100432149402915,1.792179843209291,0.73471050038239105,0.22033362565411768,1.0132482092586812,1.0884529208278939,-2.8215029568507468,0.87991511710236125,0.9768424972143197,2.733443316751405,-0.65132419386180496,0.22072806954903657,0.22483527838895559,0.27065366095878757,-0.47923884060323108,0.024330430587100729,0.26231460337475121,0.45974312671453832,-0.42317777611303065,1.4246560479257335,2.1572113138053903,-0.20734202625945253,-0.21444848713757897,0.83239618871726972,-1.1368979434882684,-0.93021387834144609,-0.13502261248582648,0.55379307325588234,-0.38995887711528449,0.11720723823801518,2.2174405181276446,-1.1445571596511803,0.091183044493842097,0.10916423032701671,-0.47970098337476053,0.9568562683605546,1.1273567737745143,-1.0461637748611921,0.55411993396323889,-0.82759433704233509,0.0086380215447873429,2.1856621444725688,0.99314917439850603,-1.033013018326862,-0.75242825048211759,1.7063750870106431,0.20443745765578572,-0.8340908505540674,-0.57455876750645907,0.3927048434488602,0.026157166677100451,0.50007098583190068,-0.3823076057789328,0.29855097416862625,2.5064469303242238,-1.2196011339482342,-0.31275481676331129,0.19752577309231462,-0.83034196276399697,-0.6101011656150519,-1.1013096647025471,0.055230971995832635,0.48293971973616345,0.20434073366632424,1.7865003395163968,0.03031514909256474,1.2464573918644528,1.4615939968912652,0.091762112866691684,-0.94723575311766772,0.15476409832871399,0.86979883631825516,0.3964002276346385,-0.42136606537218574,-0.77390122646554338,0.28263948901379937,0.077601275363429589,1.1220959816156966,-0.10257182161209914,3.0717391401435168,-0.35905362102451982,-0.36869217144014199,0.21631720211436178,-0.42296695460108258,-0.48435463673139617,-0.56843285893696138,-0.45965943081213756,0.89846403652348383,0.59841766722949874,-0.75001598852900886,2.0203440065369009,-0.55387468575646825,1.9612913238119378,-0.10449480436868849,-0.11324250608645309,0.74408137576589795,1.551006938814957,-0.68174299292613394,0.82883336002481145,0.48051405107722689,1.0566917808082055,-0.17277434594093863,-1.7571866344931937,-0.70715870561120397,-0.7613660273663424,0.6751080265152376,0.81130416095566971,-0.2027683516696101,1.0086384736572596,-0.5262275506325903,-0.061502794810502685,1.9216135727521113,1.1477387152847187,-1.3066352596674085,0.40450590924923352,1.6861450210727664,-0.35301108662994529,-0.98625997745437577,-1.5802131765455816,0.45331705656204169,0.97084880767035231,0.2951504289277474,-0.71352695703210178,-1.5121943346714066,-1.7794059464258549,-0.34494138495961496,1.7603081310846085,-0.60051053640166641,0.73893054312915296,1.5283722745821013,-0.50421739970242063,0.6305469207824459,2.1104552782431871,-0.60544351210406133,-1.0743956673843889,-0.044494440602049767,-0.2329207683196737,0.69126240547521878,0.68933301305567207,1.7029285486389429,-0.51416047149975141,0.28781613510684051,0.26841212042334184,1.9516001578249909,-1.0124110468258198,-1.5856476726899349,-0.46444116015484443,-0.16592440544422471,0.38197427870047834,1.1492165618985932,0.47034867394013252,-0.44083561105952035,-0.52370704700306869,0.45127558329967404,0.1653269466282993,1.9724070083576171,2.8172839633211746,-2.1271231504214265,-1.0245215501137437,0.10283369431418071,-0.31060947236858766,-1.0893199497015134,-2.1176176252265329,-0.19217426329973461,0.20604668519195274,1.0245171268136797,-0.062844803178954425,0.092675179335772712,0.029166896951628513,0.04859417043253049,1.1224886693510276,-0.03686231405721805,-0.5379263081578024,0.4078076651595432,-1.1862900066898063,-1.8680391382018573,0.2788936527276728,0.37797782891666887,-0.35937509194446432,0.071429653508287907,-0.37612258705293966,0.85114806950914512,0.66822973890611292,-0.20603440866226949,-0.87288754278120417,0.50780779232671358,0.14563534411687323,-1.2839054604664988,0.47720435341797918,0.83627318047880972,-1.6712084353946666,1.0785575762665611,1.3169682282043613,1.3499609687410041,0.41100157562381556,-0.0070076795467132946,0.47041235553462363,1.4091860981927515,1.9849484983478924,0.70095317955511238,0.52391867005230808,-0.9050254741569761,0.47387572249803089,0.60353339097947334,0.14853983962507156,-0.92133579169384949,1.026178666153416,0.19522637543653751,-0.95283939278921181,2.3708522516599837,0.73997924236278589,-1.82731190314449,-1.9507922308397561,-0.34300743698913577,0.1382220440642459,-0.99159269345752354,0.35241785821045057,-1.6939356868663931,0.3376553303784291,0.24093978537538052,-0.21662888794185853,-0.7592442652421546
0.87383680219902449,-0.87235122383942265,1.7658000110686771,0.10823775614444325,0.45554854429989189,-0.16229814306335705,-1.0689937120094479,1.0659554589997424,-0.83798619281374098,0.50179116356382036,0.6987648536061789,0.42820526840510259,1.7293457359168511,-1.6974822700993883,-1.2070625240699289,-1.6329261747700432,0.40637725983816436,0.42377351697163962,-0.42535734293426164,-0.51423582988043515,0.048138173308577718,-1.0156635250333823,0.55687966847955317,-1.0350915536289143,-0.12997228953112386,-1.0172771405656154,-0.95872548621160425,-0.65133007452368352,0.61414086956375513,-0.94993391812694572,-0.318419413957229,-1.9986391083831285,1.082774262886895,-0.52618485389342085,0.38430064221572746,0.071210506922333341,-0.42496863880502078,-1.941446469966005,-0.31290134586060137,0.1200202674225835,-0.90579001085386157,0.11023403741022564,1.0714631036384901,0.39503580587691461,0.080625124921602481,0.35726727392033719,-0.45358639189395455,0.42642464956809151,3.1444635083173593,-0.75165541729998919,-0.89872026967340179,1.2472993511277655,-0.34757465352379319,-0.33258262861214266,-0.81045406991583713,-0.80995380995896005,-0.47309431929748857,0.32871588061169554,-0.34263255891427408,-1.0532166723120653,-0.087469370752124853,0.38434312842748597,0.55907482484393278,0.62956019179659939,2.0395835933174875,0.22496511468161795,0.16680211129869685,0.43586843338289122,0.63624656058311146,2.7185070278716004,0.069353626357227929,-0.089761125227502417,-0.052236578443094851,1.1403346298706887,0.78342065553587337,-0.78582995763748509,1.1140778040599069,1.5658604484885741,-0.42745494302605175,0.99689869430991074,-0.83910521226827128,-0.35202604707494589,0.078083318858746378,-1.0445636091022861,-0.95624667354149218,-0.64147267400658392,0.62142687055559787,-0.40552818613489433,-0.56403599305035601,-0.98575698577569948,1.1999162949633293,1.1320382206322956,-0.23360271007837544,-1.9309429875980979,-1.0316565806414544,1.4992960509940714,-0.67030894660202078,0.70895632279363252,0.047416597838068557,1.5357797304431617,0.8625325923772863,-0.016518515408882353,-0.99825403427907955,-0.089616015009998135,-0.399758759507432,-1.7147922717564015,-0.50430958786247004,-0.41473192385245605,-1.3582170068030159,-1.8513379954323612,0.36409207259519855,-0.90236910804375192,-1.4937588558668342,-0.16145443408930912,0.10443756125373523,0.10819226958563852,-0.10260358290379869,-1.5057005034748334,-0.15781573631104337,-0.0016394058099385364,0.00020792274823568622,-0.79268765077426406,0.44184629932460023,0.019313040259851252,0.18760540593003833,-0.47323965595903733,1.5446833846906816,0.45519165218839097,1.2713059932026363,0.28427417380735703,0.055273967816003237,2.117532359923437,1.5135188492837217,-0.16279312795676204,-0.15993987389604708,1.3684695390048538,0.94574551871692758,0.48645974183999979,0.89649795206115745,0.23799150956950332,-1.3638689870166203,0.27999362814063899,0.045280892932329134,0.56161439683685954,-0.87002633612347346,-0.96283345591447811,-0.29292263603435797,-0.042878015761178952,-0.56020138243192641,-0.43566822617220918,-0.5323708227393521,-2.1213984808276867,0.12365931112352985,-1.4810164396782042,1.9927928543307933,1.1623597855815166,0.36467841145668367,1.1873398860176443,0.57117683088270543,-0.40666122890683715,-1.4157239522291276,0.061103541679951412,0.028474357017522451,0.63977442125170969,0.5256907658468728,1.4641547814899363,-0.62720315516521019,-2.2511684522160293,1.4461746535971625,3.0394155290957414,-1.5569693675028484,0.4362566734393879,0.3987113887972093,0.10379961793533103,-0.57638126437312165,-0.49896466229796155,-0.42130800996884921,-0.79463293575781402,-0.078870669427377083,-0.29083050926548931,0.37928750396674371,-0.79853099931525517,1.7938014244744773,-0.47112788681942935,1.1111913347382119,0.39091874176678659,-1.1813004142865726,0.46633166232670992,-0.46820214368799468,0.023793493953479787,0.051208872201916104,-0.80138732201427698,0.86426123843203839,1.2086730503903522,-0.92066848395426171,0.48744287326509356,1.1151894863456147,-0.20233493781612968,1.078730100909354,0.25767372673927574,0.18780528137304894,1.6358837182107249,-0.42719230570532457,-1.0412971074760993,0.36135928556111196,0.071718553411591779,-0.2297144788170756,-0.15784671056014063,-0.5053769965063567,-1.9427332324371731,-0.19473019302155928,0.21952073750520351,-0.85301143131170565,0.15721283637996775,-0.57576132132757729,1.417023367376858,1.4652295082348945,1.5524696816878192,0.23412940319217368,-0.69624582461493856,-1.2602011935643316,-1.9517887211759144,-0.53207900353397419,1.2269824666052898,-0.62554278641867345,1.6190349723005331,0.051609398569990729,-1.6998344783764812,-1.5598324517425042,0.58452662174700798,0.089718600934181394,-0.73129350539501603,-0.53038770562077109,-0.15610110327510196,-0.26032894274688895,-0.060903091497057818,-1.1239163061239359,-0.93157523800487774,0.92120244631351511,1.5218398959038109,1.2642604014582437,0.26828036987716541,0.57656264418424186,-0.68199300515539041,0.92866802386805247,0.035939165484633238,0.03734545929110978,0.80605516003899047,0.72872320008445435,1.2545264900267663,0.50189533952966747,-1.5733991767687054,2.1422214657581522,-0.72821137631684785,0.41698756741583753,-0.029136539466306115,-0.10054974527507968,0.49783860773643651,0.0045877244587878025,0.70743595148647076,-1.2779935526775754,-1.1128089056530419,0.1134943253318169,-0.96971309983160137,-1.0299983353950304,1.2175752426709017,0.089730793318105337,-0.8463972874079575,-0.039205234175566032,-0.1258825053053084,0.33859040944053886,0.4333349729548151,0.92678528024193718,-0.19457270156244727,-0.32142510652107864,0.65389348436854433,1.7636799609514477,-1.6799821414023675,-0.34801434137368065,0.025819488371504488,0.39121620430106624,0.6586991619546011,-0.84015778242127881,-1.5397790405873644,1.3077947600115358,-0.56612389702758104,-0.29764718653448102,0.62272620268688472,-2.1100173730370684,0.83367977932403792,-1.0218844078951419,1.3194613129134141,0.30726971247450391,-1.1850326684229815,0.45723031196354852,-0.11814502775236942,0.38355179525672267,0.062901392937322068,-0.44967058740531307,-0.19265666596112138,-0.19403315226221254,-0.27102833639439805,0.63490450758262784,0.0085651426161537474,0.048665441427971246,0.91355801842207396,-0.48620997524294018,-1.8470550004279334,-1.4191330821283796,1.0320151494721763,0.9630168060770895,0.21740239815583923,0.48892715098108963,0.95464909472627923,-1.0594652035004446,2.5019422912973823,-1.024431395247775,-0.055222668782062979,0.11600156861521095,0.59280754566273042,-1.2551913740153526,-1.561759191316181,-0.36076963277852336,3.0833384755824893,-1.5678703047973062,1.6738266742920778,-0.47824124069909291,-0.30042979199171505,-0.15919087475514102,1.6188983090573703,0.48739202545236576,-0.70848597172955741,-0.76044886237640819,-1.7638002591288191,0.47183684346596538,1.2903405610622534,-1.9973200743004837,-1.0473711300150728,1.0643586277790826,-0.99962634248221482,-0.43014535834296147,-0.52526517034906206,0.008924542387416412,-1.9395753374888389,0.76203284641260305,0.10428926084051363,-0.34421476279755497,0.25355118521645964,0.0080960095094262819,-0.056899516011952166,-3.4554614377164765,-0.26926484905411791,0.84561614841558297,0.90464619616853537,0.31818223510920529,1.5200304494586205,1.4180144127692471,-0.27054224662789356,-0.42825301222288709,0.40806348252671576,0.5782657139266254,-1.1224462145865191,-0.78809370464267747,0.25870741671308572,1.0892417098047502,-0.5968662396142822,0.88396453207558834,-0.10186357603810825,-2.6381162351974941,-1.5318231423399482,-1.4366471544657859,0.043303847040419577,4.9449665820188033e-05,-1.1212699820143175,0.6318617474242858,-0.091481395400720117,-0.40476048632955502,0.81605096936179344,-0.34417745150438123,0.17298991555593698,-0.5833085316881681,0.1997906150249493,-0.1594340892865421,0.86731118696621523,1.306665469205935,-0.32070310158470766,1.2112652116595426,-0.75528919253237903,1.403419422318525,0.59186140719537017,1.3210087255744114,-1.0151054825073846,0.13033623834566282,-1.7380574174825885,-2.3911423068022239,0.51226293251661059,0.095993361007942077,-0.50161264288723062,-0.067481748329428728,-1.7577893191990446,-0.39143598943515584,0.87638593542309273,1.8878793257644981,-0.45586246526789687,-1.51017467072149,-0.32202138574226974,-0.72573443168936524,-0.27562301257531757,-0.3495692743158631,0.71568112609613399,1.9512369859937646,-0.16228253899631812,0.88412042630202015,-0.52321284702918425,0.39146606163584674,0.90410256094772301,1.6102154385794023,-0.81693424863459474,-0.56635666091210402,0.64663502790311045,0.77905193872498424,-0.20648249492151233,0.72252910242276813,1.3008823595429855,-0.4187500366741721,-0.096341463099605493,-0.72185760802348664,-0.16375810287413725,-0.68455275002160043,-0.49542302883269002,-0.91040544619636532,0.29037680261317889,0.2399574477643667,-0.45834176049479725,-1.1164581913647518,-0.26417431452294049,0.198746375208528,1.9721035332038066,-0.3795202348507416,1.1392871023216449,0.15120123971213237,0.19286299074083463,-2.8160258068859281,-2.4254867431043663,0.11706067005920676,-1.7607705196916466,0.43482141933125462,-2.6263159650240913,1.6346350190510774,1.4806539723287855,-1.4417257072068703,-0.73041897812393841,0.61317954193874236,-0.62045942718736746,-0.20550155719421065,0.30517212683059552,0.31896324566809725,-0.68896446356651053,-0.92500227048073447,1.0374762020009538,-0.047959146984155335,-0.64793039332662916,-1.3459414448524287,-1.6939160412036471,1.408796206397865,-0.53536572184454245,-0.11404601176748899,-0.91985230643605265,0.15015511283076796,1.2305726560389905,0.42679794437830892,-1.1415768538093474,-1.8996099038551899,-1.7067232966152495,1.3715988584911516,-0.60828041896126328,-0.52562212504081085,-0.88191254533657149,-0.48957157488514963,0.55814903754988565,0.27057910751000069,0.1642480552623303,-1.8613756865702156,1.0307437964040576,-0.70085553930978317,0.2032884249169708,0.15412841775995373,0.14608416435120683,0.1153123287353606,1.3123736841513276,0.9016062377003351,-0.90116825243744925,-0.90206887077067488,-1.1359844178182055,0.58895120885546992,0.93914537971871503,0.11996146805067184,0.79461030543675226,1.6952911948138145,-0.15859114261933638
-0.66817414070040748,2.2136715592213188,-0.25124467068580325,0.88613844538555653,1.1771316280009887,1.1110015554268997,-0.17402286901038697,0.31108647426492936,1.1409285193542731,1.9340660868896971,-0.89166110336823767,-0.070355904488710042,-0.86337887059768725,0.16959256254203378,-0.20329674885211202,-0.52050520145474721,-1.0542305746790872,-0.14680432513165909,0.68349736903548164,0.3752887284087284,0.73568554009096498,0.20148591548283742,1.9684102277478308,0.23418772751560915,1.3932877876378669,-1.0833883356488809,-1.3800690322330142,1.2212469994447357,0.46148911985183122,-1.6641219290386071,0.36144328184244939,0.18753692426006754,1.1219398926990867,0.20150502488235594,1.2822699289023631,0.91288217589141563,-1.9086762613226196,-0.36909133137189215,-0.49348227587766652,-0.39926191850900766,0.62894737134343992,-0.80661946509786009,-0.44126276964352412,-0.19651832525991828,-1.8774123523661752,-2.1409823420082961,-0.41624338543193495,-0.8079888283812432,-0.24835434400595724,-1.0162129561846258,0.35154297037094712,0.21968986749251915,-0.2036581584149669,-0.78253912934548586,-0.40084512429232932,-0.06858766716502554,1.0911599464721302,1.1490853684414795,-0.57259330965186261,-0.66859118136379458,-0.48104754838552732,-1.3069892666270682,-2.762104149597953,0.9548153421353196,1.4794985127274025,-0.21316169210602234,0.091670736923097171,-0.10476667135699909,-0.69216672939132173,-0.35508370884068335,0.30837642061350173,-0.22175864312391166,-0.55778259811397635,1.5149865632980415,-1.3077240605361724,1.7306540372637107,0.74851655460367306,-0.21387336788802844,0.72792672096661692,-0.10852098161382041,-0.50240968940377828,-1.0372656060748235,-0.61734070147607001,0.28974355696206833,-0.67184438753322473,1.8433077211075279,1.3588125414481298,-0.67909994701665588,0.51843302138936831,0.72846754801915214,-0.38361913014179283,-1.6859768976266669,0.61831149091101945,0.50967422237112492,1.519205459279481,0.38215041149588896,0.97112827255461431,-1.3278000964646424,-0.20905967340749712,-0.70088863605544383,-1.1488819477185517,-1.1682906445234373,0.33496032156435013,0.71630902911727956,1.0382573027367816,-0.14311029600793682,0.58243570059882066,-0.13448749571377508,0.87038041147722012,1.6088580542140669,0.61822325251773924,0.72990656125339914,-0.44541770846148848,0.81635907844405298,0.81284506498883624,0.4508737144596856,-1.8921508045502422,1.0273172127841743,1.2331834340917827,0.36282511282390295,0.72282531498627223,-1.7638556624256323,0.68601854340867707,0.65151031635084988,-1.3968913849593037,-0.71750998061208404,0.066243857722027025,-1.1983729311901783,0.23324719984676567,-1.1615650773605493,-0.54477322142314433,-0.61953521511006249,-0.52979517589583169,0.62861879194504089,-0.51710351346500472,0.30469953564396435,1.2857893295487663,-1.0711542120484581,0.43349161749602388,-0.13221025185352483,1.4156804314410716,0.49831796225248531,-0.85493220817026394,-1.2367985402791022,1.1753189824477366,-0.36348229640014751,0.72838597320491605,0.24656151856929548,-0.36909853678492788,1.5257291478265502,2.4169247816678867,-0.26839289323542842,-0.815662886372433,1.4372792262398821,-1.4597316279544323,1.2130615241199216,0.96921489106169623,-0.73733495224821033,0.48671821710722157,0.27559370614914547,1.3383553889939588,0.060773826227735507,-0.8330366797442057,2.1993454499066818,-0.091116667576169319,0.06911474080913825,-1.0670880509630476,1.5980227159344844,0.0055295479167965433,1.1872462899579612,-0.77687950572069664,0.73374649568701455,0.88436174934661749,1.2183249081177934,2.4609640657545802,1.2652445746201078,0.63735716592947345,2.8723487615570988,-0.34279161211352677,-1.6937316948419232,-1.3596241416369603,-0.97132374952797995,-0.60756946692267233,0.99287678555070502,0.77119296521648706,-2.2936792837024083,-1.1613812557135679,0.33412074872933467,0.13145390358505463,0.56050982244580838,0.93329092208693643,-0.20934972574688004,0.53153891902090744,-0.46512377894500151,-1.5478399134932674,-0.17281533356072371,-0.19949517682253234,2.5270606768458852,0.032689090578546291,-1.3659245205861525,-0.52326963546780692,0.912881873385891,0.069234249602131426,0.016420862959750412,0.19794849962438046,0.25246401119720191,-0.17925023673160387,1.567343391951018,-0.57666292544559139,1.2033352320836355,0.022339347347572907,0.40514628461709534,-0.29322283759107126,1.3234133557563781,0.70282347587209659,0.63800569539702146,0.68887470981932575,-1.0976551158190164,-0.44642741158723576,0.26209488674462511,-0.70462265884115693,1.0650673496699798,0.45973267901688464,-0.87281996917801208,-1.9168427793435852,1.5723962060042225,-0.36301693235235089,0.088290504273047382,1.3831870030057605,-0.61197938787102979,0.34527040520633573,-0.11820427101020853,-1.9232331960317994,-0.19086420981581373,-1.8085955182105937,-2.4837948675031103,0.96751617780728805,1.3178599939540705,0.26455737357759213,-0.13279848924524038,0.26650710513395443,-0.86596985008816285,-0.051601349392262637,0.02603321889752655,-0.79229937399562467,-0.53385635789047525,0.33691731612957948,-0.94433589878942303,-0.5244954517624405,1.0021705479094667,-0.17300529953336397,-0.49445931865664811,0.26331939122290005,-0.04351510770403412,-1.8790770547777809,1.693231815786419,0.47587850919455532,-0.10628471649453139,-0.28467819574066439,0.59628413587049733,-1.163542122135504,0.49665509641085798,0.91508951592081855,0.095190305841735864,1.1616659568942211,1.5000595135268897,-0.078879774015837748,0.40255950185005479,1.4083918880141146,-2.3111763335916788,2.2221126989346116,1.0911814485798883,-0.36943319812565922,-0.54795689898134015,0.45422536500968153,0.9761087891455944,1.5323944023855152,0.84842265975383002,-1.4672864285260432,-0.81123916905344096,-1.8859710042422475,0.0054421863244310548,-1.9510397944225919,-0.2390955785378189,-1.2129638054788319,-0.9056416214288362,-0.086492024559656502,-0.19889580661698256,0.41915188485842303,0.94138530197594095,1.0640634186677795,1.1274813340620993,-0.018242026798682278,1.15475345273064,-0.25772975285719268,0.57298693804554712,0.24590151785689995,0.10777036686172513,0.27312766513328429,-1.2984466101880985,0.35370255117124977,0.48776167061061415,0.42300697972685147,0.64045111287888967,0.78669655370060965,0.6727484251462803,0.60414223078616813,0.70527227643392942,0.27157654483220039,-0.15210214613446935,0.82615067842611278,-1.9026420236886097,-1.2775643460217714,0.49610796611679381,0.3888347535082225,-2.0588821197492884,1.2871224996160637,1.646181089381356,-0.016765226912166156,-0.39000161137731215,-0.17114651252000343,-2.014053799181148,0.29674406916377011,-0.44885842943729481,-0.90328632300216294,0.22823986475352478,1.072197981089799,-1.5201672849693773,-1.4634973200470189,-0.17624902926234121,-0.03607614351549477,2.1107715627138641,0.20085765174745082,-0.26163224113062078,0.41179774203572345,-1.7674888043895745,1.7634698871285146,-0.71649357288858195,0.30555087089361749,-0.71114970787260789,0.49842524344189931,0.33555685162439947,0.80396019706142163,0.80086198897416117,0.85769282660540314,0.25774966246544301,-1.5184796244355698,0.7668969627891441,1.1079034512516133,2.2437723398472138,0.41154167582652523,-0.17947424461082478,0.62107871128532699,-1.0797890363037381,0.15390941733293653,1.5619330768449671,-0.38295442247742018,0.59377870348634376,1.2927976068993583,-0.59581691466443487,-0.12748661281930046,0.16089762881425579,0.27345679957418123,-1.2207948517969516,0.035319947581001571,0.49357058111454538,1.5529210965598907,0.35072801572337842,0.33306064129376556,0.88206430745608388,-0.53029279183051437,-0.63209092798131594,0.10364950558797756,0.77288121814093325,-0.78998260930881214,0.62797854196105185,0.27749105203646884,-1.3150381390979193,-2.3069060892019646,0.27872488445619248,-1.1889228066633308,-0.93866554394592283,-0.79172401749183152,-1.4322845375510254,0.77959800565440551,-0.35211957762339047,-0.58654452500138787,0.27158585368503751,-2.0072502102725749,-0.80096751940320998,0.28833794667005114,-0.082866177487483331,-0.97552761645198172,-0.49237039914966435,0.34614220070404433,0.18003429138907356,-0.13590922852352466,1.316797912017198,0.98020166118283913,0.23724254358112007,-1.5203048674603319,0.778838560515974,-0.68239885041156012,-2.6846399744733951,1.0775777653353338,-0.51329252051459806,-0.41165301803595516,1.1162433618665932,-0.15559245452459566,0.84461660172560449,1.4120282147681475,0.56652660927616749,-0.092288784333552545,0.58838124717655804,1.7740409291869543,0.59070050494283222,-0.51338502692112875,-0.52150835586171362,0.10202888028694683,0.034463671690694142,0.1014996839214571,0.17332721428339165,0.73996725843857736,-0.044778492626220814,-1.7359024247720454,-0.32693711831138433,1.4281419272732685,2.3391298184510334,-0.37091310391564386,0.10259803026396412,0.25288615410543197,-1.9193394146666924,0.59888000724879387,-0.46008372898470218,-0.26104096261157406,0.43950315067754131,0.28831262232048005,-0.44416509999151699,1.6284119880276682,-0.91850924460503114,0.74286407286314249,-0.04873250888203276,-1.5944894903638989,0.69566257844991053,-0.55713370198515488,0.71006253691667132,-0.17783991564864582,0.14543141283402658,-1.1133019599768494,0.92440015082424742,0.89239421483215386,-0.71760062710243078,1.7065091726859329,0.064556113255651262,0.0087794957093974228,1.4438810495790348,1.4746615306012865,0.68940241844793948,0.64390268587379207,-0.45693978647256261,0.58283225978586084,0.66948884200623426,0.16361814803450428,-0.60250038848784426,2.068548557501837,-0.017241809096810383,1.0874007503090108,0.22274809537214529,-0.23732706987467589,-0.3903511710900659,0.20870131442224829,2.560320469047737,-0.045634211960100077,-0.47531424473193978,-0.086792806878494819,-0.13756433360272038,0.97908660266553604,1.0997727692805321,-0.38773094382927631,-0.61509866335461372,-1.5524005613695668,0.55884926745054464,-0.40112398285986234,-0.054936904043382348,2.2372158238859181,-0.64702599482341805,0.73994177658132188,0.26109751941349696,-0.33644957478153403,-0.77395539321549023,-0.69802058668925604,0.98075299834942109,0.18015371865423116,1.0292293930460745,1.4109905666629801,0.8980936948109971,1.1638361434739641,-0.87144829221704134,-0.82125041051293557,-0.8175490206321383
0.7336789080663445,-0.40543705134239383,1.7875163886846659,1.9130656238034345,-1.7379236313043203,-0.12279770397095401,-0.80567272098294618,-1.6601569985833085,0.86486100448110315,-1.4729184316040094,-1.6303129017572198,-1.3815272428513785,0.50990138216270586,0.069216763298875897,-0.46420862539622759,-0.16491589340232482,-0.58620250823103215,0.78388558932165298,0.71543633692978403,-1.3027921038031613,0.079972360150703803,-0.36879088535976806,1.3563073209298362,-0.4386685586283966,-0.59242280615806187,1.0655103735492046,-0.22860361969876253,0.20242248439165647,-0.38630735855870424,-0.10566693437030016,0.35041419330749568,2.592547899668217,0.37691877245142436,-0.19350095103049902,1.615311304162006,-1.0744471447176778,-0.76224142909903014,-0.24240039500830823,0.65701147572476515,-0.28370260250794549,0.39329756391674559,-1.1915050449775861,-0.35245590297103074,-0.95806080241722491,-0.61676476191359531,0.54616727318092617,1.2273260244978015,-0.76172296569202969,-0.016580611526965799,1.0951488505456795,0.73414824349429164,-0.47265414039256193,-3.6751302541631179,-0.12782214256550459,0.84047868184780239,-0.24518550964272953,1.8337648746740152,1.516340529569344,0.11010442679068379,-0.72748019813121345,-1.5214744071942128,1.0964584354380067,0.045030724584967999,-0.92367441484165724,-1.453630325433495,-0.69537956872861395,-1.1404116991465472,-0.54623158265410399,-0.51939543937672483,1.0142754361721307,0.48580687420279356,1.2700461931428462,-1.4229985742957567,0.059007238388093693,-0.46507795483401032,0.26064453404150351,1.0938448274320576,-0.30585444806608608,-1.4143233875943348,0.19387849471610627,1.3872456911842985,1.2641898605754105,0.70964900871705139,-0.67231891578892489,-0.45827392351292079,0.1158978289504127,-2.4879185783047593,0.12225234657489065,0.17662909816867564,0.056158331515220213,0.33600079899118368,0.52263781406495247,-0.093575938717162632,1.2290200070332264,0.32438545642484623,0.16037705899986421,0.4481810638450166,0.53869936628180148,-1.4296147649071023,-0.45920686309807229,-0.053869225243599009,0.64321297697940094,0.29989612427067852,-0.66098509585982157,-0.30812801366282538,-0.33356190613019759,0.42662999532200935,-0.54101575512364664,-1.2748564351665741,-1.0201167002421476,-1.0526594950177328,-0.74260926449096698,0.85594396676750406,-2.8017934061903373,0.80472131727622376,-1.17990720533468,-0.12725017095228278,0.18594316779261338,0.89846696466342157,-0.65867968638015761,2.4334256173354718,-0.24080426859324269,-0.46959464894788733,0.23870498772039753,0.87597962249919936,1.8480784729582775,1.8989199141407644,0.29591880690278588,-0.66006068607237667,0.50995406554429823,-1.4659660206897964,0.9687360506872924,-0.84634500054859174,-1.7575154937897874,-0.44461454342542789,0.29149447899825798,0.027816134738115707,0.094659990463658306,1.0596198990313821,0.46179102556277718,0.69133838526335656,-0.36696454162434389,0.04220296762598378,0.21611750356127948,-0.45596002297157467,-0.10551961040728257,-1.3541219920176384,-0.81457903847032487,0.46646613298342782,-1.3678913567304463,-0.74939913012046078,-0.83175631235130332,-0.3234091831550715,1.2469044057174934,-0.079711721032916669,0.49316461769236597,-0.32732639890430987,-0.44422457605234422,-1.2051473331833504,0.70385055510976891,-0.076665313898231002,-1.5138989306020638,-0.56417765535502951,0.00095265797777231937,-1.5771353599800193,0.51064024031575184,0.15648215176158398,-0.86315196074148781,0.87928765608283543,1.0642944444435534,0.23498450971527771,1.047680409251341,0.71569263459449228,-0.20720675925215745,1.1908422183337515,-0.97748440340836495,0.93488174415836012,-1.8114234828529365,-0.66251460447443378,-2.1092386425526737,-1.3285314267451989,-1.580682030543058,0.6317645640225088,-0.4087362188898736,-0.64758233538224175,0.85390892577637978,-1.2319073367119631,0.14126485768239971,0.27713748015921391,-0.092245625926759542,-0.024345563740497591,0.94876162307179734,-1.7220146134803158,0.40273302941450007,-1.3644208352577534,2.4322384605064737,1.0066878930580636,-2.4515997492675283,1.3914973939149327,0.049795494669885108,-1.2992281648174517,-0.71096093659006698,-0.8380256957417066,1.3906209313584275,-0.200302950299516,0.050749966870862397,1.8423422062301138,-0.82863538640258727,-0.57518650517357583,-2.3246794557908039,-0.5068084636642135,-0.90515379564139731,0.20154254597439253,0.21624282828161895,0.4794226522058847,0.10398423301613639,-1.8201290729865311,0.87056370192137011,0.2077485836887627,-0.22665249693555845,-0.10999010605610969,-0.078356069977519011,1.8014456018728899,0.37761537590416427,0.38989233950314717,-0.16324768875326456,-0.46630194931381985,-0.78897010191674477,-0.095945278847516011,0.29171361663223844,-0.89803935985989547,1.2205799609711974,-0.27613655765849426,0.15539163211019091,-0.17917941534659476,-1.4665281191425688,0.59931379643252769,2.0449117795905751,-1.9018695797662133,-1.3795756270641144,0.87181010033775619,-0.66508198214051617,-1.3700856135475701,0.92965053363240568,1.9832800367596379,-1.8537134269678732,0.32988388612123531,0.15573914496858601,1.275975946825129,0.99014063932400997,0.28401790140072936,0.77505208314826168,-0.13721994466621432,0.82194215344508326,-0.11865449323068039,0.69235551617138857,0.6370181632109001,-0.07775390692874054,-0.29439387116388072,0.038589909243347979,0.42268367645353377,-1.1882007883009178,0.59106986168763087,1.6252303255717564,-0.74081008334983389,0.067523249134609734,-0.87734577059251795,0.80241787020529609,-0.63675935084605007,-1.7530781253664598,0.35429164213454045,0.76463405129000939,0.25696974690112506,-0.88550195773169149,0.90420443163126918,-0.90293139868326822,1.0753382517903822,-0.047735019732598388,-0.37830359953169013,-1.3573774449771718,-0.059853599368106129,0.58141117757242899,0.1294239583348655,0.79953278562280472,-1.3722000505024623,-1.0705577707937224,-1.0729590525509807,0.31186257158619896,-0.49828635798056731,-0.39633282128383501,0.59622709189700085,-0.46959649968688544,0.41536308968487418,-0.30399599437916341,0.61584224763683693,-0.43409283285717365,-1.0872979752055494,1.9840174675168114,0.42812922238877504,-0.26183240175408135,1.9541685492194605,-0.10008764837371292,-0.41583417265276984,-0.10546368546144473,-1.1491377405295415,-2.0455936253499956,-1.7948662493045071,-1.0407655216654421,-0.44022147927050609,-0.77232019999956814,-2.2296128370543573,0.065318406101488882,-0.22153964403533605,1.6946699695745429,1.4183422966879264,2.2220286046573334,-1.1166973311691275,-0.27334878165370241,-1.7758464800829783,-0.98840320284748828,0.21516281196045212,2.8008456624968376,-0.15073525366500456,-1.7178690395006018,-1.1856227745561543,0.091915464987256904,1.1852423145156687,-1.3454870014057088,0.45514157741813566,0.4807258346423659,-1.0447988763400633,-0.84485974565804045,0.23423843801664765,-0.072254341560483937,2.3478475915302424,-1.2183539868495645,0.21216686165440174,0.7399807242787042,0.036957577417438547,0.37231413636403482,1.3310351491252796,0.24035930043553055,0.37607697123708494,1.3026647154102069,-0.69300729521944915,1.5351177049870852,0.4881582470369264,1.4427226613181612,-0.77782607253035629,-0.85218721156794019,-0.43278048587799262,-0.21257025942451235,-0.11468914223793228,0.70067634711538596,0.54953516942762048,0.99597923585659021,0.64274464644365614,0.51117669257363318,0.14624097487631482,-0.93612563899038004,-0.37495969653542832,-0.55771904664725258,-0.37180498430882725,0.039186838383184722,0.18852859736971633,0.43055006237136645,-0.013360092636891316,-0.51521872043916395,0.23056322465587556,0.38784662570068651,0.62056751260337983,-0.036812871979548065,-0.75684895743136316,-0.79811863462939325,0.31711347184462119,0.23812528583662768,-1.5835121877867513,0.31414835530208979,0.89335775381249682,-0.25279773387187426,0.36873375441673312,1.732683780804342,-1.2999217091237629,0.19601107866417974,0.25463214279356883,0.97291789107832016,-1.7658185158450306,-0.74815779012536798,0.62193190999055803,0.49750950809296862,-1.783489629521217,1.2749927365439067,0.56664014874879409,0.8378780332735617,0.070752498832872657,-1.7895051710440077,0.29487115975975459,1.4908564210068069,-1.1248549110919857,-1.0509947311235106,-0.62754589632596325,0.29047937259035372,0.61800445938764847,-1.3106057999877645,-0.16958846970974095,0.23442843945945524,-0.26768818535354794,0.18985781858222503,3.0402041060181966,1.7867018104932042,0.078393692847785343,0.45139728962237757,0.37340394523024983,1.3979377472963308,-0.5913930707899776,0.27117222214056125,-1.7402948638269606,0.48034134926961253,2.0533406804393524,-0.47148085496366221,0.0092177375688154897,2.1274454467636845,-0.39780823745511706,-0.57204825889361366,-1.095366911346737,-0.30770688680229796,0.26865082177799932,0.59898469563929824,0.59318668217779713,-0.15624559325405132,-0.11491711826214765,-0.36786644646340216,1.0635252387213696,1.2650191724438544,0.12755820005745333,-0.40299328408642443,-0.38433320537211985,0.96147216195694774,0.9757166175831532,0.3589300120162191,0.050011093120440234,0.35693021378194267,0.16310961187897535,-1.0595376663666807,1.234788034408038,0.58067739109246641,-1.6314579660040811,0.72263703584215855,0.0025130419896506788,-1.1071745955620702,-1.7683879068703421,-1.7110254365271758,0.24082533468462139,1.9378566255518725,0.30779759956924568,-0.62481769156235389,-0.30028164201419927,-1.0413580481258298,3.0624990822857647,0.46879397591991478,-1.2508306109118796,-0.58100367285952359,0.81776457147837101,-0.98435621798188233,-1.4431815129227341,-0.33543489615502714,-1.119088314876755,-0.99123718573425834,-0.66544826920324474,1.2275604225254908,1.7438570921308634,1.2166843148211155,-1.2182368140660231,-0.25004591497247364,0.14774837080240921,0.96363913252839939,1.7579931210201791,1.6176337636484419,0.38364452872698573,0.1940124708889423,0.68093355352947293,-1.1444248231724501,0.45824093551438605,-0.75022910939581922,-0.82939967052318908,-1.5066243361684835,1.9855575045972533,-1.3476995870929311,1.3691560413831991,-0.59473408562187469,-3.0503388983833393,-1.089949295281345,-1.2626255132773232,0.49543838260463191,0.56225180220219362,-1.3923461963120216,-0.66265822768532501,-0.344995475045973,-0.17650361674787021,0.07533888022524185
0.17103592844706531,0.88433061638564503,-0.48835807931079656,-0.1557581676848615,-1.6299122750851041,-1.0225510265338724,1.0391935912912824,-0.091972644017707772,2.0510631496318696,-0.77285486625858735,-0.11020130940381272,-0.34751383863784996,1.0375339457038892,0.10020314656514817,-0.82009053573933233,0.29635095522914606,1.0214480414946656,-1.1799667580577426,-0.73010148928233676,1.3896459279324129,1.5400487333157069,0.23544778872091593,-0.38808957228554042,0.64674384790176453,2.0459096906230752,-0.010522760603375697,0.34978012899954425,0.41716343141576079,-2.0879175415039919,0.5228049715821278,-0.036841440859561932,-0.24479261398107868,0.50887014549178744,0.39069493348317902,-1.7778555587888811,1.9869031218276985,1.8730645808129269,-0.97012725827908242,-1.2400691300247033,1.192898158352939,1.7863924847182464,-0.14380833871778062,-0.44199251062823069,1.1896307696709814,-1.0233259508458414,-0.81783230251593952,0.27061362574256942,0.55998502592096022,1.4364743419061334,-0.28298919004343159,1.5956025954927573,0.012373077459451577,1.4735508288486641,0.55339985616811138,-0.90941221049558274,1.5525179758069572,0.59176902066438675,-1.4557265397801609,-1.9357983320631678,0.97509551198636135,0.7120600734162934,-0.3002762663820005,-0.22314115947554466,-0.88624979732426268,-1.1731711013813342,0.66918261300759263,-0.69555438507090106,-2.1497352055187591,1.5086547992897519,-0.024426347434942396,-1.2583529448726003,0.58162519610847951,0.073223747993952606,1.183374992672005,-0.31588719504842733,-0.36380399559879495,0.91059078148769323,-0.082307228598831245,0.40528292212719946,-0.69060620945035367,-0.78090995441156807,0.30248424575605382,0.92246383279707578,1.0027864336605981,-0.67001223615959937,-1.4066391687981414,0.74135585521208802,0.46007532428245829,-0.32090384107725073,-0.51963144863708632,-0.38368611557049764,0.14118727115111271,2.9477838324784922,-0.31956071242756551,0.63379048153828954,0.41924801700689629,-0.5858345228619728,0.79422895085969258,0.058865061915589018,-0.63168976903142759,-0.65762597587954852,-1.2113015725095644,-1.0653920642797408,-0.76857010418327765,0.31001447762729506,-0.68572810281477203,0.41986123896990213,0.89306317552151449,1.3911907457571131,0.5277949269834552,0.68882611924909742,0.28986872878105197,-1.30949976645759,-0.47081003521514714,0.79953023473551588,-0.094675104486026937,0.74273945085961557,1.1604588898872725,-0.56249542598160041,-0.40714639365402189,0.13593366954301198,-0.34229763390464424,1.4760887927531801,0.27498089293213412,-0.49549743018212733,-1.2652765837911419,1.2361840168375997,0.35456382781430962,-1.5271890724424018,-0.60779775074515596,0.93374752430854058,-0.95647191036659596,0.88160099381610146,0.89655446839462682,-0.88237625092616434,-0.77042708617491018,0.83418540800007202,-0.5378358811732401,0.98137133688029565,-0.35647048470429216,-0.52612933828932595,0.76602257014407626,-1.6801501629944542,-0.23274127167127492,0.3612647645652623,0.33754248201272025,-1.199546591422614,0.5152688515252245,-1.553241381425478,0.81951938172823957,0.42823510086894445,1.6509752678802001,-0.46244815287749691,-0.018623710188190104,-1.4792428268348961,1.0756337974271937,-0.73495750662608372,-1.3792899229500872,1.8951735936990961,0.52879566714813375,-2.0261059594585578,-0.33778717738505026,1.4443650695006853,0.94555511566291361,1.3171756996426811,-0.14440418309686415,0.97109230482417219,-1.4894315450338802,-1.5353976430245555,0.010570960932654153,-2.2084644872566632,-0.024022511183980858,-0.17959663407453974,0.65721231399829039,0.79444076549149556,1.1340162924528945,0.65961493561987827,2.0459257657537129,1.3560226069326071,0.97370292075864462,0.32856857674048701,-0.41641202883742645,0.16963178151837829,0.32941513708832509,0.098894563688860654,-0.84240450275111811,-1.4478926624932458,0.87612590239480348,1.5053914541344879,-0.26974265299621492,0.12756233156033189,0.51641657994526025,2.3668572317742065,1.1676928440348762,-1.0539017059125622,-2.0174970029138746,0.51017280909935581,-0.2334682658805142,0.62090268157720574,-2.2558435525421086,-2.1477502521489509,0.21912723074073098,0.7853213417247521,-0.71793960848566241,-0.35834331538558845,-0.43937054473530057,-0.34329985311335354,-0.091399509826674344,-0.71369189584775938,-1.3340428766204908,0.27550830132637177,1.048072101653124,1.029563318307531,-1.0138789313981753,-1.810394125973994,-0.18077925458531569,0.60026589640480787,-0.40334236344466617,0.083911600446782184,1.0061546543858011,0.42517725014060476,0.016464572263668549,1.5260845593420544,-0.74057088403277016,-0.65096527092014678,0.75743662087199271,-2.0710559847948002,-0.097076659318192371,-1.762295973467384,-0.1047562433162077,-0.64526849678440901,-1.1913128929833814,1.1747898129566829,-0.58322153185376358,0.90444098194795175,0.80005513751436041,0.36652090539287202,-1.4861164877898383,-0.087033622615018832,-2.0248723167013609,0.82791446530463908,-0.67874148196238171,2.2195661963889948,0.69886158221487926,1.2454988793815149,-0.68048397387831017,0.2167312814219475,-1.0319974743343396,0.82627100102014273,0.64561014001266548,0.26487276734496573,-1.4007310761166558,0.3497133492472928,-1.5704366047064824,1.324285481805662,0.7999899839875938,0.33328582939639123,-0.66385403926228559,-0.24284680727469796,-1.82873410258872,0.16652856742248223,-2.3382092707339703,-0.20875949141287178,-0.9878249606558368,0.47414722039336077,1.0212647981155907,-0.34589753334860129,0.32406817260561155,-1.174029359335979,0.59558891258461444,-0.80651471321226365,-1.3209711184563449,-1.4722460153543331,1.0647946962145867,0.67529108524416448,0.24351931775988675,0.21678264080954021,1.6331942500924563,-0.61083937726166948,0.16806876794515047,1.2881947514744545,0.67031715360187738,-0.32844349350630636,-0.47478395821412722,-0.3611942318327212,-0.68151280761808708,-0.088125721467985391,-0.20591937252217596,-0.89109627267091263,-0.48361954705889137,0.14153148228385509,-0.32613955182419146,0.88080827012540419,-0.63846950042873662,0.038886826135230756,1.41509240670655,-0.50423408193399366,-0.9496402195889474,-2.7888439386027075,2.1729119865888147,0.81889198334567914,0.56178101139874514,1.2966721051580044,1.5894932284259087,-0.34490598719806842,-0.75679888805237117,-1.0942745281936384,-2.0037746583101779,-0.34619685213963231,-0.13673425115204907,-0.20712233749094286,-0.15803991049912583,-0.50941420688378469,0.59581913360009608,-0.83469775669515389,0.99060277231462612,1.3449204315362975,0.3016041274944195,-0.28672273252084518,-1.7220936583424209,-0.7702754029209441,-0.15144891065573329,0.29851937951606905,-0.052640297541602384,-1.791027956982288,1.1509167491581154,-0.6133868530190183,-0.68315397171742298,-2.1645673120664539,-1.1580500555838857,0.3453335319520911,-0.92972898365756029,-0.79852839147422028,-0.31301256165246982,-0.94042800393915693,-1.1042035516969448,-0.59385633088573231,-2.1422205237385388,2.0590416569302299,-0.70510418033265365,0.46138104416069731,-0.079685618364698091,0.7265169643672682,1.0760055979036984,0.93358486725421486,-1.4444118771126433,0.51984699978881799,0.39379821953722899,-0.55905448658667145,0.46717611271968229,1.213383600167586,0.72873030840840614,1.1917977683211689,-0.1443843223627656,0.040114293806726577,-0.28061785997046534,1.1333498836286251,-0.018819123966887275,-2.4228467993644793,1.1219642601667197,-0.35849253486662347,1.0107355284525241,-0.36079776135202124,-1.0736530941349969,-0.91388881166925562,-0.27471466877095541,-0.0059783889358038366,0.15415958803819563,-0.93873863030310201,0.41840472757025482,-0.1374201328959542,0.60563656503622565,0.49662792924587956,1.8132563781803093,0.047940247630758888,-0.63900432317223044,0.48379017570116239,0.31583275104516512,-1.2423704787929823,-1.2015859863989036,-1.0048969034900208,2.3191826468771191,1.0757264634704884,-0.69426845747088073,0.74389151088422845,-1.2200424214038204,1.2648100117639272,0.06325682991322952,-0.27018035726107431,-0.5162296430318537,-0.10912818421498094,-2.0214922235517179,0.15838552002797698,1.039109772307536,0.033506153357382155,0.84033274336254571,0.47894980040020979,-1.7036801742287724,1.0365840955031018,1.5022293140680629,0.10262865881099846,1.1982926568387902,-0.3665580263201591,0.091406647674587352,-0.35775992966464004,-0.60759052936221347,0.20737941654148939,-1.0252325579278885,0.062501334470136005,0.51011627873435139,-0.78808910409658572,2.5426688474500252,-0.32216508133564675,-1.0684422166382392,-0.93043586720203963,1.2312084493068651,0.82198210090656865,-0.46805223475454527,0.83582340561408741,-1.0583833308248307,-0.86938879935913271,0.54719868352855139,1.1302976953755732,-0.24205939303802443,0.15672976247862103,1.3448303383105036,0.77994351239388737,-1.1991767690726167,-1.773584283834607,-0.0090529278468491035,-0.074473129579114464,-0.14627573502399108,-2.0363913121839481,-0.45872445045279631,-0.88241390748778648,0.55342177964642769,-0.23493522577033332,-1.6007785377385699,1.5798867052715888,0.99883620519039917,0.38027966300823063,-0.13237681364936937,0.58437539411002881,0.11336064558563395,0.1967961862168153,-0.29964133939947807,1.3147242463720266,0.88472172837611329,0.69151397882838705,0.86685831107023059,-0.053827138559960803,0.99508564341635541,0.079281815819506732,0.078326463027451707,-0.35724283938988494,-0.35366380079223669,-0.89967493506026353,-1.1967330080629468,-0.85424693435726229,0.27546869170269406,0.0095573009839042544,0.094612467403611386,0.43365619520165832,-2.4779524927693748,1.2129567137948991,-1.2146204915104917,0.19163725495851511,-0.91643588572969792,-0.1393937889722513,-1.7513049911769718,-0.34734060109168685,2.2034955369575915,-1.010408141445982,-0.89213669231141501,-0.3084824246002838,0.19628383061345456,0.40690051208471578,-0.46055515707364958,0.12720976792035316,-0.34302545048428901,0.044040149200088419,0.75757249218205525,1.0657864430293533,-0.48891627727840126,0.46791440098440051,-0.26170982187508629,0.94589731132525579,0.10426213103512728,-0.095400348773660881,-0.095049786633698619,-0.56197876135238611,0.025539536235190577,-0.55884133631333988,0.058003762262793711,-0.18715732715792241,-0.71655503642175689,-0.037310109584516672,-0.82976249354775877,-0.71829109489017107,-0.44478949585898858
-0.87152036763049801,1.3767464665415943,0.32625634399447201,0.16975975723597411,-2.0182364489109981,1.140758871401202,0.61653477345885477,0.11742879003442587,-1.8059915865626148,-0.51192714431106801,-0.44991418074811285,0.48599250231544833,-1.7827648708990458,0.34354318436755782,1.001910733036933,-0.4970717122424837,0.9598964040293072,-0.59667165935198974,-0.56544939399922656,1.4383317031742908,-0.15074586873768836,-0.093863892110491481,-0.6263209707427041,-1.0175862229522579,0.39552479656477108,-1.2137485910899033,-0.51441777642744402,-0.82963762312284695,-0.64126793474777799,-0.32664267817308118,2.4245664144556511,-2.1437688736374496,-0.3592581363566078,1.1727148757565302,0.66254718773584864,3.2051919321114157,0.48731729263795143,0.17443958806897072,-0.18199830461968264,-0.99920512857506594,-1.1296684847404985,-0.50488740218056916,-2.2624887467460288,0.48068574757046578,1.0192969108384464,-0.86319241498130528,0.50244548031304903,0.39220933897609561,1.0559817080545106,0.64834138400744945,-2.1793918406499646,-0.59764263475028612,-0.54772868402782504,-0.68670921501798254,0.15537380591845065,-0.085837559634326738,-1.1495129371538124,0.64262470349096312,-0.1633880652660491,1.3346890456044815,-0.88686673207379119,1.0525287001553156,0.62363410355399318,0.38990518179164857,1.5035717341820016,0.85244907682298865,1.6053232653300549,-0.1402111483960701,-1.6270574390853871,-0.558270201147264,0.26565426962747996,-1.3564719554026008,-0.022688183017729884,1.2461714427611519,0.26260675665040162,0.17060698555506432,0.22474250442707028,-2.0451814579487553,-1.7612928937088259,-0.53272037981942433,-0.42134334668281243,-1.5972154648550201,0.86618278014028915,1.8177977527530926,0.42257426316855629,0.4741412319673533,1.0897513920818622,-0.24480601601919769,-0.38268531310086384,0.60521453736549258,0.30126096470068681,0.45942253671715022,-0.7841827380218569,0.86264750371712451,0.428379908860892,-0.25181329347949094,-1.5084852998860723,-2.1194767274479722,0.56503225059313866,0.078449670000477464,-0.75554473975492531,0.76643113482172376,-2.0506220755616091,-0.63441306538792031,-0.22200592736881833,0.42207029565092924,0.3509956080479581,-0.69125084423638261,0.34002452761628921,-1.2336605931699225,-1.3596955992249853,-0.53886880371823487,-0.14216122271781148,1.8031156783253044,-1.1432757533908788,-0.23995485090868993,0.098933665444650182,0.10469066094953396,2.4647038188529016,0.97067116609877946,-0.43121407016329227,-0.94315651179204507,-0.69923154081611261,0.65782789628301175,0.28413126629991542,0.086163226191474179,-0.34607541199938197,1.275883198572656,0.20270569693138729,-1.2872162927085922,0.69925270044389209,0.24243556038689065,0.10143279196147385,0.31761632983657684,-0.7859722849911519,-0.48626313114877057,-0.79320292375985357,-0.98837689242004434,1.4612487810878674,-1.9703280033350961,0.091220468647433828,0.86984699832579782,0.37933920755938194,0.5680418125731147,0.984932935108356,0.79225549224356473,0.37816903518935713,-0.068175989992993305,0.45588414185280124,0.4903552366830346,1.1947429995084606,-2.2722125896528813,-0.2335516362094664,-0.28770457595470733,0.078122896746956785,-0.022130947801653755,0.67967385793724588,0.48694192811068004,0.56688481270788227,1.2109783811037778,0.31796858820068163,1.6325530974552303,0.77826482555065701,-0.55011272229852304,-1.3445859149111956,-1.5097274926237254,-0.29164469906510382,1.8233410169287569,0.80381547996881442,1.4277194176405337,-0.26534739288211517,-0.89534577799418413,-0.23246991486129273,-1.0150088504685602,0.9987212370940054,0.21929508139882187,0.54189598316919241,-2.1954455501084986,1.131326443666165,0.96209338788969512,-1.7994755743480821,-2.4223413401456155,0.19524294608734533,0.40271978028041971,0.78439215484830016,0.71382575961975914,-1.2689664068383919,2.0532417830171443,-1.2355169258681875,-0.42611280032016202,-0.98646282336845048,-1.2093980417229981,-0.0071296203438478405,-0.10705790251142673,-0.33508592598205733,-0.02383275788519772,-1.286020025233146,-1.2930237292847389,1.1310567480490561,-0.15740140176061052,-1.2125906863610441,-2.5631688450994328,-0.92945013428106882,0.11564838152451143,-0.073579285116251669,-1.4181517412467906,-0.31942289203363522,-0.22464661941189029,-0.51887380410395745,-1.0613815436826788,0.39018039512501834,-1.2911831816257817,-0.48562428388909401,0.65138275453889827,0.8173797230305172,0.15630952809932414,0.083055681856319855,0.28391289946179382,-0.43555011519546433,-0.19416708914215014,-0.63573753671282029,0.64521112441957684,0.66159227616329774,-0.38794417351696986,-0.26915589045251376,-0.023257237526684797,-0.041947306210507858,0.069792583292392546,0.055084622544121248,0.7878937351829135,0.90932124051290286,-0.88925552658529727,0.28009803807788392,-0.17462729139222388,-0.0076434733056684086,0.70481818918888317,-0.9567566215202572,0.16679873724396516,-1.7624847584680194,0.14927991577812894,0.040276694686912126,-1.6938206454657971,-0.49566612117100206,-2.9296021484420751,-1.3586399922545427,0.98767154466030516,0.038098200093397337,-0.070512287745309862,0.92863734926884567,-0.95257421713250034,-0.6214621763622924,1.3361585912211651,-2.1357900293703791,0.28805912709125919,0.74026944894245272,1.1999569579786242,0.72032593199289641,0.58595524337094429,0.98402732855903985,0.70214434292603911,0.94566550854424647,-0.41993161847692684,-0.61444012163232353,-0.24619937250140059,0.33579067151964898,0.086554660713961729,-1.5259953457649582,-0.6358755229791504,-0.84868384211589476,1.0640451133825426,-0.29512500889898646,-0.4277016562026259,0.51046755562058399,0.23404549389988563,0.62408110778821102,1.2250940295943817,0.17146648912840154,-0.081409995875244015,-0.079156004667811919,0.16816423178062731,-1.1290323314340744,0.87325771936726138,-1.6899920868935663,1.5459066550264073,1.0479598743233767,-0.14561539757712424,-1.7688313083513014,-1.6611602401113277,0.0084914877764244445,1.0505111224372603,-1.376809135462669,-1.7383602916102454,-0.21668149485835947,-1.1752848596141567,2.186229577598128,0.50710101996405155,-0.11266398729278354,1.2652656128204103,-0.77626547357252695,-2.0590326023697396,0.76682322270152892,-1.4401752703127499,0.72405481947231032,-0.35029393981051365,-1.6200476974975793,-0.22043687555929986,-0.53865323270656351,0.042428068856590284,-0.64992997757934878,1.1004788970956316,-0.6160355977929266,0.49773670281218785,-1.871828012671418,-1.2155616541933068,0.11180019713658199,-0.38780714733637284,1.1172321528339384,-0.12017130919774073,1.2716965107373348,0.83589919741471552,-0.060286119412085504,-0.88151544058227349,-0.053888130858905869,0.69152914190099579,-0.53406188317920267,0.9720964086820133,1.8973106942740074,-0.29418691626629839,0.40444185102233116,-0.76272301259214859,1.8017608215559173,0.49988161565486966,1.0107112348790988,0.71017721071156648,-1.7249057499072538,0.7288852901504439,-1.3080032328268176,-1.6396116465162882,-0.23733443591592035,0.56887758862000104,-0.21612910241083078,0.99260853166513796,0.61901161808155303,-0.62588829800956369,0.34695442344543198,0.089673339267593258,0.34296225424131094,1.0845121244762954,-0.04430452905122307,0.18784755407387579,-0.96560332826620399,-0.25315930126751884,-3.046660038153969,0.20392892292632611,1.6380654676924862,-0.50181602254558555,1.0903844285100639,0.66689802245595575,-2.4557577555123888,0.56704928234892471,0.43047212619964142,1.5840825534851857,2.5535090434438943,-0.64224726133938259,0.03437884691379,0.98805227215940605,-0.42978555407163821,-0.98527916620227418,-0.72610767222400041,0.82286737808743238,2.0443098483487407,0.90645036632589082,-1.2712764647697627,0.89102745457177679,0.67366213180304668,-0.34733891945391226,-0.82967193800743988,0.58716670324445142,1.117908470216298,-0.17729379381728719,0.48094214162091969,0.042894637539638042,-0.44562023832958708,-0.95266884612158798,-1.2248423926601051,0.74237410594665865,0.007171578969388942,0.71473286805459302,-0.10552752963518071,0.093702603477410357,-0.26756225703781411,0.81610111637547089,-0.08379176919426011,0.94937617098584037,0.16835053113781093,-0.55030341620217915,-0.50381393124282214,0.90016221899115367,0.032761499262081925,-0.14217643063208099,1.3824014606346733,0.95806822789530333,-1.2901910314460776,0.12620972365569694,-2.015771801034679,-0.40381700075570648,1.9441149622952352,-0.52380579439495767,0.87561299079524446,-0.6502529216784172,-0.24870481274355535,0.91547421580115129,0.75866209732065504,-0.47628466611094072,0.63058105325078995,-0.09615122012422754,1.4634081104396119,-0.064015212430775806,0.48969125157481702,1.8908137562747713,-0.73848140146666019,0.18412955190442165,-0.38970434253375047,0.55796942008076,-0.86898939858000201,-0.64078935994888342,0.59528111589323951,-0.96085820127649413,1.6838959613848872,-0.43787151836277466,0.0050483482836240646,0.32044892403231767,-0.98712134076047919,0.11541001344221391,-0.45369686442679463,-0.4479681448282441,-0.98942658982021592,-0.26804492955170378,-0.81502735596071574,0.35456374224570453,-0.72672306179476176,-0.91557989821302788,0.39774793921265633,2.074767717433593,0.75812127782954897,-0.51976301027334237,-2.0988505521601613,-1.5212954381151851,0.18896324878632259,-0.86793448840641718,1.029367639615737,-0.52852439346892233,1.1631330307410876,-1.7661140830763642,-0.89785702565069458,0.10721044604738496,-0.62954364901125226,-1.0989942353375892,-1.101792186821591,-1.0258318260767154,-0.66275132172407392,-1.2572268098158337,0.10678693063969276,0.46149221732553514,-2.1221799541024033,-0.24437553517839497,1.5120439631626164,0.29525408121690394,-0.043223446966087924,0.22066073162913569,-0.38780466536553398,-0.43532772626805216,-1.132762323035976,0.090668047718590911,-1.4083766778991156,-0.69375168060262615,-0.88415605709396616,-0.4672558273205713,1.1167734319338576,-0.047792344283071594,1.8365242357567491,0.34915960458211509,0.28817255440221123,1.2547916143022921,-0.206831320850801,0.48251474450104753,2.3565258023921998,0.28258863163892128,-0.13090069407429289,0.86128258269058666,-0.45724268994593065,-1.7650399409111799,0.72504392280501395,-0.59615637137307542,-0.8135980925138584,1.8158356001141336,1.0734588286002931,-0.6290671877118329,-0.21177022251854177,0.020351183748004906
-0.34515677232335729,-3.1349638053375317,-1.3419648987561466,1.8867208120582066,-0.10593108241053902,-0.41250093524968673,-1.0445362542843188,0.23711880691216353,-1.0758122911054477,1.2310149749245243,-0.2110174047041305,0.59224780093107654,1.871749027688961,0.17350491667934853,-2.3066276424041474,0.41499344836173435,-0.73625688059231142,0.68344982655383368,0.17760398176395401,-0.80012632305447973,-1.1183308414971762,-0.38810632870565875,-1.7044895371766515,0.6447573705056785,1.4059288157270278,0.16798092997380737,0.30936457422359387,-1.5966656965304258,-1.0073109962148521,0.39496682070521738,-1.2231800011917715,-2.941205220435315,-0.67329499319058717,0.3874589162742344,1.9130556621368247,-0.4654470875631137,0.50680419577163094,-1.173999327509814,-1.5031914585981885,1.9570396265068999,0.29507627033896999,0.82985061203599197,0.92922288834091493,0.83287557380454824,2.5356648096241177,-0.37004070512894216,-0.35073291757229103,-1.6323894499734448,-0.51886745847870608,-1.7312380102415257,1.7506324096734456,1.3089749685139924,0.57873867590358319,0.76792952640176393,-0.059412387840807622,0.036467228662125192,-1.0684816643619168,2.6748905443538189,0.020813586450775599,-1.3042836593385343,1.641989030764605,-0.11986560378543602,-0.60293670266385124,0.79476615359722924,0.16160467668870968,-0.2500664162557355,0.45957536065375593,-0.78693695913589468,0.73545798041478216,-0.93000108686736382,-0.57312093311226542,-0.68568911350645667,0.42567425930096625,-0.28696385690501297,-0.74132240974698393,-1.3066510572971182,0.97888826639031956,-2.1827488131493968,0.13820645259298386,-1.1826462673864304,0.13761937108232422,-1.946225180530575,-0.54367705974063441,-0.49621070600708944,0.034812157400425585,-1.327968039464309,0.7680935199266905,0.030198145525903185,-2.2252709759270517,-0.77809016465363801,2.0312692179134006,-1.5567634022156709,-0.09053614391008831,-0.79997610216816284,0.51014977426695862,-0.080030570407223736,1.0714374924463921,0.90085089154233666,2.0282076317282569,0.14512658178952823,0.16309155906191314,-0.12398056081118342,-0.17898881566451066,0.66108946476122055,-0.07556415539561967,1.9161807373812441,0.50084394560194401,-0.15783724435765401,-0.0084832743756685439,-0.97730525540268542,2.1896427597665067,-1.356768055835113,-0.7567974236175663,0.11044010654232378,-1.5096904799280761,-1.9278820573174693,0.1169780132109219,0.1341657745077405,-1.4345771131755196,0.47919898222778434,-0.30146304229583137,0.68024376126988395,0.94436886141721477,0.82992510792305907,0.89085435219413434,-0.280532106392192,0.71272472947388099,0.66640067280080506,-1.8174261636238016,-0.83397296478232874,0.25135273417186965,-0.28406505554083256,0.21135696222351771,0.22944417949429805,1.563976133192639,-1.2494178841711672,-0.043514812722280617,-0.69039428309781448,0.10323166425692695,-0.11267057201746908,-0.48642805701536318,1.0547134778060858,-1.1835696717944957,-2.2376119617639345,1.3137564087355624,0.28463719627204681,0.76284815230319492,-0.14983646217129348,0.50655369349091983,0.92657866768235819,0.1280228842944266,1.7185996224852489,0.26814482446407994,-0.084751305116682954,1.2033294690244742,-0.13934475404502678,0.76172353187437047,1.4809253044310289,1.163511403871492,1.0060175216240455,-1.4498207912562737,1.5069602870119947,-1.3613464023996285,0.22468654523213896,1.0843676666986684,0.20515379286254945,1.0793089199446426,-0.20011535761277485,-0.52642195858352925,0.26314101219801911,-2.0392182214417485,-0.025929659201761445,1.2635247511693319,1.8933177168315987,0.85458941596103299,0.90695609580306003,-1.6589178025287248,0.12573663661631176,-0.20829829493116911,-0.94648046182991685,-0.97838526909125412,-0.91434565843122972,-0.26608005259358797,1.8222189180597743,1.085905964579126,-1.8549951058069265,1.8733111378943161,1.7755078032518468,0.47328347190821829,2.0180343594907826,1.9348388566073795,0.84003677710147984,-1.4881473675659111,-1.2557100819831175,1.4014964680526776,0.81587160159014094,-0.80909845297242955,-1.316845930696662,-0.59426769310815453,1.7992018227567612,-0.78469969527202021,0.98094405247579597,0.75202903694897305,0.16501572951101859,0.35249834995065243,0.043137229410589513,-0.59049773553699247,-0.69975942050233264,0.56740307460050599,-0.46004014273230787,0.78824722224148969,1.5185643782604095,1.3968422395199185,0.43424160990076216,-0.18687652462999524,-0.07295203458756902,0.77756462789538783,1.0441557828147963,0.06817658228950281,1.4755761014228064,-0.23277794694648865,-0.21473902638686451,1.5602412390789808,-1.7933788842853879,-0.22973108279487472,-0.7101653922687251,0.93639747717490851,1.5994380889544282,0.20533924468812154,-1.5949751961383094,-0.5107889997131243,0.42227534442672648,-0.63820396892734899,-1.2523230772449048,0.15932835224368416,0.55341272509171269,2.4801639552892873,-1.7154910521579059,0.70409799085441593,1.2171461410807101,-0.74844829954502035,1.2571759300945695,-1.065718782528323,-1.0560570066626451,2.5113609053886781,0.53111383960534386,-0.73703921558239671,0.17378181277422128,1.0438188172422311,1.352752595197583,1.8671137789584542,1.1914586488439856,1.1961385087109113,0.32987232570943992,1.7636526056034785,1.305900470928778,-1.2370138591398419,-0.64512389125208025,-0.58849132202922316,-2.590972439479045,-1.6329349794146781,-0.6560418681986826,-1.0891190983318952,1.0374269649361649,-0.69673371302668385,0.31031299272529606,0.79809658092921298,0.79646653959148295,-0.34029826567013999,1.0237018690727018,0.96345196432654356,1.3995054642916251,0.97753424854249304,1.5667840541576243,-0.61155292580192788,-0.051008767923302015,2.2925128067782756,-0.52356527950602871,-0.9826809044605449,-0.34230514362514819,-0.28993035152988328,1.036171302008789,-0.2993681455684894,-2.310919156550947,0.23200980074254737,-0.28198668828693368,-0.86723913246278495,-1.3638521364185587,-0.79598770992696433,0.6427107821077257,-0.54372551590804796,1.6255314669147112,0.79594140797335777,-1.0460251216238192,-0.53613327260445887,0.039150632953759805,-0.32504644845912162,0.71322539120921369,0.93642521422155389,0.32409997226449949,0.16351172960209126,0.968405944024192,-0.51371768566655029,-0.70811840785923441,0.7031984660340953,-0.78517698622871779,-0.27133614220186114,0.73013162402929377,-0.71873037670600914,2.1491576059562205,0.061839885687892872,-0.1743466378668112,-0.25834706100379656,-0.47436135659964507,-0.26178334344870657,0.27206912694706731,1.7170356737390615,0.11321391843322265,-1.3950120308324501,1.5643198691395108,0.25207186214928912,-0.86473220170805809,0.7568469081086554,-0.26109420647634413,-0.65991213255606529,2.0433554608844116,1.2303404829553257,-0.54826501289317509,0.036770390183804902,0.46362212283246274,1.3193735713094781,-1.653726944370445,-0.91500851616188683,0.87670651721487602,-1.3101321597409159,-1.7518323287657145,-0.20552829938060785,2.1769094840478513,-0.23904778436897939,-0.59527819262367332,0.2521370926309508,0.090154826942989097,0.84722680383711813,1.5179547908493844,-0.29510297900964877,0.14343509219129155,-0.00071176885501011793,-0.19117876052456537,0.35510009207322485,0.12876793978026382,0.014129633041218123,0.18822497583534256,-0.30914631493323297,0.25751933720492709,-0.37018294524556822,-0.83042779635673136,-0.53389953973080961,0.66800554972249104,-0.68116300546979036,0.099891356149937299,-1.2531157163184046,-0.56849806514045376,0.84111154016893419,-0.64496088631154491,1.1874172399240661,0.019897806261276418,1.462292680523654,0.11980922439175108,-2.4219704223913823,1.0357267175054115,-0.36710733194538619,-1.1750216816019521,1.2359032035986428,3.1991086720016577,0.67164109283434725,-0.69280901625849733,0.23561705910636899,-1.481859791605284,-1.4726367972250352,-2.0690837132958002,0.58684322384978738,-0.20842774816447157,0.31982420248568089,-0.2075231446821785,1.355637081163926,-0.37196708268525963,-0.69308505788375885,0.12371230334017511,-2.3177519004695091,-0.27705439244581836,-0.50747870274840179,-0.33884010363574468,-1.1545691015831845,0.61373841774095272,0.21727149537232052,-0.63879769792408825,0.82374705159492234,0.9196858386429716,-0.098314988323097721,-1.0917570694645442,-2.2951780935265842,0.22992119063807975,1.073191399477623,-0.2773817564880936,-1.1617748450899996,-0.28238569637322497,-0.39976302791832219,0.68236050759705147,1.6681478486475543,0.071254216939400844,1.9689481007501672,0.82245401511137095,-0.47065988120706947,-0.45779184797724098,0.27480281691184461,0.33561827060504112,0.58397063760520607,-0.35166532473710738,-0.95383584462217241,2.0392883562857826,-0.18753650178534367,-0.22131466740237882,0.83379438124731642,-0.62681492337059885,0.61367486262959581,-1.4617337253263922,0.25306640381726808,0.88503197699802871,0.53866479254914434,1.0001221393514372,0.073445935414820085,-0.59965324726341529,0.059412403524854655,0.53474910793365671,1.704394296362632,0.024552024890937569,-0.77077832991087769,-0.1646989410808862,-0.15174067433686653,0.62282877699697337,0.14736063401336183,0.78835098657019653,-0.3424607352399871,-0.60129935149134117,-0.75587641751867141,-0.0286428504152965,-0.49587794288472886,0.12205619516637026,0.34809641064501701,0.023759292646906582,1.5818050344501138,0.35419515725696665,0.88002249719476633,-1.1648984177593589,-0.49919867185614097,1.747921202102958,-0.47045432578965796,-0.46277741958901464,0.038101891568704332,-1.4921130596842118,0.20383436477608305,-1.1577502289988266,-0.3337387145972428,2.4193124456676087,0.50635417340166944,0.39596742607010299,-0.55927290243022876,0.68714526879445603,0.45119860073058343,-0.13007400362885929,0.8899540811874268,0.54641363361225603,0.54919263462897061,1.4082688129671666,2.3448431711006519,0.34622422996129709,-0.16805470745784648,-1.4146569389951489,-0.34426309716595316,2.0049639581842444,-1.8173016991247763,0.27729830541936645,-1.0128469310952155,0.12414007963173303,-1.3002681944644097,0.42653149400534218,0.32112583241240233,0.29195995752425691,0.014646581058222306,-0.58303561746228838,-0.92366503226778007,-3.0389286869266128,-1.4554431726396388,-0.14621461165590655,-0.080420312263725313,-0.11693685936561811,-0.40823419666456023,0.9673072080375329,0.23373570338743385,-0.41546299243366569
0.73400213481955556,0.90465896928279232,-0.31706074690382924,-0.27293722342473115,-0.13955888441378561,1.219822896430178,-1.5884442864218906,-1.7328600716025693,-1.0832416065369352,-0.34498020790177875,-0.87590969278788477,0.7645074101514342,-0.39085464567087913,-0.7529181838743586,-0.95875263867672977,-0.39898391415443046,-1.4236262005167259,1.0283470304621976,0.51145798235237039,-2.0409197019548375,0.14288709646093903,1.4172649555711885,0.86878982334224175,-1.8421719202922338,-1.3759649335135922,1.3594111592674869,0.26830960816127719,0.75052284305297978,0.68010764026834314,1.2083789289552596,0.69286793545091796,-0.082751912611235642,-0.46373834388116664,-0.67241691212026233,0.71802456992264252,-0.5209179843335644,-1.8404474457617193,-0.99867535901250526,-0.11226193215487432,-1.8644490788501273,0.37931038218041652,-1.1591415152630971,1.157781998849593,-0.75298614818438059,-1.2558062671041881,-0.48614443380469197,0.62870722609220431,-0.010688150296170937,-0.015277199041608746,-1.3059995446189581,-0.083944660624491754,-0.64686379168839092,1.2223773988738189,0.8359126535600484,1.2773928391831832,0.96395963566883425,1.0062739531728109,-1.0893688042087795,0.80432592486862686,-2.024233773601086,0.046841290856015926,0.30225745864164344,1.2439991824680547,-0.38414261042785997,-1.7732266077502858,0.9322654804426509,0.14200200927882115,-1.2688560354191409,0.084477201483229472,0.57062646199641476,0.26203021725427411,-1.0791369179632877,-0.026681352846140313,2.0566954819909729,0.11424521938703613,-0.41033370648825374,-0.30292460830156631,1.4497399174600483,0.84329908334912607,0.67155154302284392,0.43522263599561095,0.20753832097883507,-1.295259624978472,-0.20341286416352411,-1.5528346061327263,-0.096595681341533068,-0.066856512072832081,-1.832036507940602,1.0835136356693291,-0.35846346946951796,0.28105830888868216,0.84472905376328178,-0.28537418513666263,0.52643479378669922,-0.44495680658474468,0.44019307640867689,-0.3119181224306366,-2.5085042273014153,-1.8506854958306691,-1.2373739159745889,-0.56778437389564662,0.62737949078992594,0.34225696510942361,0.57612529799746803,-1.8544324936132939,-0.36838714009106993,-0.96964218454908535,0.46039161633026976,-0.51885728305734946,0.39874379666340726,-1.4568312217386314,0.65263432984041914,1.4700883012981889,1.3782957845812427,0.81530811990203966,-0.18266234266626338,-0.20579358450483071,0.50363764890512353,-0.36854908049764568,-0.65400184170033815,-1.6547300412292685,1.1049917397136531,0.69225655005755338,1.7533783198903174,0.023025242043192826,0.17029419123691508,0.54388567532068732,-0.3996571404847894,-0.54452182010092287,-0.97140972763371336,0.509596355031257,-1.2065123748496993,-0.28018301455183808,0.031578559702884083,-0.86989037129424884,-1.0389867948666409,0.15310937065385175,-0.26703481436647331,1.6523953801626825,-2.4050787620516894,0.41959082130013353,-1.0875630855157978,-0.0034128367370449796,0.65773135249314341,-1.4152925600771202,-0.72351630942290646,-0.45091299560764764,1.7626032289657494,-0.1862772862302971,-0.55811784986477764,-0.52088701557590011,-0.47936421076270896,0.18547730274433297,-0.35670756356113142,-0.14436973902951286,0.8451245567053477,0.64947878925061786,0.97673206524040412,0.15878349567512218,-1.6521294430905951,1.2449464324083199,-0.50925688437550998,0.24366556898401479,-0.85220991839440752,-0.87010617303870053,-0.47152289432374672,0.62074623834592191,1.6385290463844022,-0.73901289885467703,-0.81455506466121508,2.0060160968257508,-0.18559425012860972,-0.30375911395622235,0.71327593555498658,-0.99971773332895308,0.40289713967706786,-0.15404559518111974,0.52253241705579456,-0.090504104807060698,-0.10501476919653417,0.73731833173988182,-1.4754452190237812,1.4107527668511068,-0.30997378365464773,-0.0881066908700361,-0.58044573257807286,-0.58468791239832774,-1.8620697926272693,1.9259666014561367,0.12287296440666227,-1.0779780137318973,0.07952113768094933,0.82940880369204106,-1.3209931912339092,1.138036429381416,-1.1352178511941016,-0.12470439418184233,1.2623345063554738,0.15926245273273074,-0.19970501568528043,-0.32041222511340273,-0.1874702495825597,1.1003803655299838,0.48116279484276731,1.1605818795519953,0.49346054734366135,0.67011396337921592,0.41438104818095661,0.50921628785265571,-0.47937424776082993,1.5079568870702083,0.4241097752625046,0.1874606319417409,-1.0854408517910132,0.48663381610515249,0.86007030894789316,-0.95007776688581258,-0.34778894682220735,-0.70680984062355134,0.19156693072578648,-0.61575057429743296,0.048366745539257683,-0.38355532364937273,-0.91236952399541915,-0.43834156469168323,-0.82835611107016505,-2.3049406011864857,1.6882164176277636,-0.62403147002579007,-0.39717490053527182,-0.82150937974321858,1.2666269413919129,-1.19504158194694,0.52996044389934893,0.5763878545927652,-0.31128021855046956,0.39482266264242438,0.55614767202953341,-0.65845293860024956,1.0833701283329671,-0.22369213785487194,-0.80132817620063701,0.034590050280252943,1.040879629850314,0.99116729434016326,1.1239669837148709,-1.3119594039155813,-0.011172344917884373,2.5692560708664631,-1.1937582562767639,-1.0312498021654695,-0.9468730433729512,0.82556916002427883,0.32983924030522443,-0.39471371508259973,1.0964223650883882,0.099063877423702346,0.67146831021633047,-0.92180807038238066,1.8187183365980566,-0.079120464062982593,0.59681258391715797,2.0961417642227147,-0.89471895925347011,2.6465396756486941,-0.63396171500548248,0.78204480277711885,-0.8597140206399374,-0.48064824708033033,-0.11887195382393478,1.2435807788948101,-0.49868296849804478,0.16896157645151863,1.2624719275322627,-0.52047380247977737,0.83738536360947868,1.7892761963517601,-0.26462079325521737,1.2594248165374196,-0.12521996910582153,-0.45508904677766532,0.43490259083462363,-0.70565324532419016,0.72275825615352551,0.25712704476052428,-0.0013126831402856304,-0.43507805094715363,-0.39181577870514639,-0.32152034448393801,-0.21520568376301116,0.2982446275534904,1.0649552130845887,0.60755222606036763,0.010737218030889881,1.1198414724168748,0.88502528257397506,1.2178562422852208,0.41826652112580348,-2.007549501092238,-0.98559968263724007,1.1508868961239247,0.43743890104364042,0.44110019763298747,1.1327692649632721,-0.99796505208777153,0.55380400740677482,1.1226982205903919,-1.1180055936221289,-0.60254696669262309,0.084281354888383217,0.77640163514443417,0.050796403502676481,-0.71781840776842132,0.22635356869854931,0.34855601997707497,-0.55575569324327223,0.55124672445561551,-0.28769173543775306,0.65377587845110308,1.4217820457207786,-1.4185946859978247,1.147873556401027,1.056607962190053,0.39143519340549376,0.82801879854127192,-0.39467139307741628,2.1778404046214206,-0.82844514242000178,1.1216102499126264,-0.65123203349643211,0.42953826414278257,1.2693876743726893,1.1524321836353379,-0.054446372004157709,0.22329403069650386,0.32933800808789948,0.50705551032818219,-1.3262177886850679,0.38238972965377976,0.023106765178626299,2.4109316123724907,-0.84681832175628469,0.12812095949797114,0.2647589146129915,1.9870968891967034,0.38367830596639968,-0.7802776305254242,1.0978085634069976,-0.057872810956609302,0.32268513358494522,0.4810540966613045,-1.9158966781301019,2.1826348233081463,0.50200484550115398,0.44832053179266163,1.1273360023111412,0.47567147210686972,-0.92279371677923439,1.2728368740637208,-0.25636527954439842,0.89348808754129039,0.25759755264858109,0.41129560421169337,0.17579651107788244,1.5282896650872893,-1.3564023701131078,-0.67434416238537831,1.3909903044840657,0.42617998005962904,0.13990942735531112,0.34345665937944991,0.96612337439948714,-0.65665501036784413,1.6663018445336866,0.3956438395635421,-0.59383470825978169,-0.27800687507895427,0.15261290455554857,1.0071348694195446,-0.8617433480776937,1.7795418871000703,0.73629781884553724,0.59986839172620854,1.1922559653975577,-0.047070536089271774,1.0944082250611893,-1.8181173178819279,0.30924451556171018,0.37688130276418896,-0.64628332672699806,0.87612979143921499,0.53168109480597825,0.13886327736056089,-0.1060484220768082,0.058572358560526033,-0.77590135214169487,0.82203578026349666,-0.28463466992818959,0.037894969755786302,1.6858784615954137,0.66926831914721818,-1.3842700067773472,-0.54368435095609291,-0.50370726087145279,-0.811693450481901,0.66510325310689788,0.80656741973265511,0.96734815427174425,-0.71184992999265007,-0.84294508310403515,0.14224105190345421,-1.198016556969808,-0.66263157770115177,1.2296523984444043,-0.82435722902140596,-0.41975138982691346,0.56177841805251383,1.0122167267786317,-0.39083779379402422,0.88649123642143424,-1.0140671156558692,1.1357093534494695,-0.95823534242812536,0.94529902171432356,-0.62140292688177112,0.66712324745509499,-2.662272805276948,-0.57275652583444803,0.89389001374329891,-1.1612287093146547,-0.11836513902296748,2.4465828288831974,-0.7715374335224352,0.96668630631781327,0.31252614907229315,-0.2764245522340032,0.44715328822243983,-1.6619210938741138,1.7728399110146997,-2.4884600364604541,0.90732830596589464,0.7694782418407996,-0.4927058158421419,-1.2307371803751102,0.044892680667581453,0.5370562291854768,1.3134322154934521,-0.51649102187890972,-1.674953162284966,0.12955575804722289,0.028671280235585534,1.2103366806154403,0.092038620356669834,1.4825023467807807,-1.7804011906867845,0.073262942076661744,-1.0033932105453576,-0.3988185388911577,0.70399631131987528,0.38189601318530375,0.067992478626253502,0.9177253433835636,-1.9131101993338768,0.041818248567621848,-0.10429258835094313,0.36645257715575641,-1.1431077621295052,-0.4351529842087839,1.0133378168606468,-0.85057447998679636,0.11711346512065637,0.33059180531042553,-0.21031760419580842,-1.2656702352232412,2.041257955120706,-0.59874893984773792,2.1112415402512124,-2.1918116967187755,-1.4658484732682615,-0.5807074319565303,1.2748615317240222,0.7964804194159899,-0.36964573890788271,0.42353044024822611,2.0000419611920073,0.32538294548608754,1.3338846778401048,0.16598800358757249,-0.42516049323949523,-0.21456116599279129,-0.27139825990458999,-0.45519207533695871,2.5622527728660183,1.6384318732065155,-1.4269640798559871,3.2495965922846679,1.8718341941210213,1.4169237835134529,-0.19429613158925926,-0.70481801327316684
