0.59810433989521594,-0.39288885016947472,1.3757124763190314,1.5327778222104478,0.88780013174720585,1.4928937057521521,-0.64171392012153716,1.8883751218661198,-0.22814962413308104,-2.3328893360734244,-2.7661258544210909,0.72305805143884816,-1.2480149474287894,-0.097037047940661564,1.1906461573113656,0.24472097333700532,0.62964008482679912,0.92278260090761122,-0.039478603331826533,0.41977633826798622,0.36533159977110813,1.0863149536051884,0.6641015163117695,-0.46791778183761168,1.2365902799588802,0.84493963414506534,1.4857640928295539,1.264749321116871,-1.0583028043657619,0.96493893541918474,1.2594621283375431,0.74223484557326092,0.15696035909281947,0.85945697508529406,0.46601971760103644,-0.93903394652671068,-0.087353088397602655,-0.30850020052796262,-0.64677066712828035,2.0122001989977827,-1.7883861983742844,-0.11251984218713815,-1.7620645725359656,0.049191204111793271,-0.012914651999816193,-0.47414082267124885,0.37455769073494399,-1.4227616510547989,-0.33640260101920588,-0.80575465780224598,-1.2664776007391805,-1.0538526613270305,0.29243771264316931,-0.80121235610415209,0.99822435193308623,-0.84769782896928725,-0.87743533969098098,-0.99456358843868908,0.57344697944752487,0.27243731184555003,-0.36198359326719309,0.44774900805026252,-0.0031266309255565694,1.2081444417785847,-1.0008878885764225,0.84062254517273283,0.63963493100577695,-0.25043530239225409,0.65394461731941311,-1.8905262764096589,-0.62678536067880453,-0.62810505709688602,1.1435562325145445,0.74810809157538516,-1.7822097216768689,-0.59111105906500994,-0.24107358970075057,0.80785836718613202,0.24996075923092259,-0.08276689361139454,-0.41600129354353704,-0.41105257027431391,-1.1427203365598051,-1.1707280059131702,-0.41273246946594261,0.012680346249445924,0.9881870629714723,0.13965535794726236,-1.9418109169710407,0.13731145562325905,0.15242463601435921,0.66619846239143754,0.42993459183525273,-1.3473308826228991,-0.43206258651855856,-0.16299123654594128,-1.8675097592574752,-1.5751714135402342,0.78672814487973564,-0.66150107523023949,-0.6666245981389789,-0.26220919741630044,1.2478251021469828,0.27601564750262114,0.042116123467735266,-0.76810966469107256,1.6590340549712024,0.54279992328495585,1.3876127663547193,-1.5645502163789111,1.0745078467106839,0.36041550340836609,-0.9545656050950615,-1.6541202539677722,0.87366830835254317,-0.33653613535413696,-1.754513277199536,-0.22617983071936612,1.1007713933221794,-0.52701578399430704,-0.82847056449499312,0.78146940979446367,-0.88023844250655237,1.4143496119353689,-0.042276668912561058,0.57841457173420296,-1.9591767148165042,1.4849800249588896,0.15943243321621445,0.38572616231276974,1.1050753170545997,0.37854789943873907,-0.82292479361032111,-1.5824819667684999,-0.13200198931168403,0.045191244842231491,-0.49385736061138125,-0.61475736455460051,-1.0116533948325719,-0.077984673919727854,-1.4384157868223302,-0.30105770210521893,0.28496970718418907,0.61266071862040905,0.057769994439810263,1.380196501063953,-1.3326800754370502,-0.077645972333541244,0.35170550284083685,-0.98815449777003062,0.035728344395142261,-0.50193013845938017,0.3752545654909481,0.20944309285527662,-0.064945169740358119,-0.24785768046034853,0.29226442704856015,-0.073384203195806755,-1.6748785019950814,0.31282166197192746,0.12321585051799627,0.78550441606265564,0.57871266913017549,0.85851919848409342,-1.122726009168173,-0.4828611283584639,0.33933749323789086,1.0745647611255147,1.1585327876134446,0.31645606383549946,0.59355968188647068,0.90711964681963553,-1.2306112715305446,1.6258045028839134,-0.96839185563393848,0.5846609045965746,0.54345834159326301,-1.7736062406571433,1.6435894520090972,0.70770879236808992,-0.87157374994648318,0.58228332051337139,-2.4920044838897115,0.53742668704595409,-0.44324787963342727,0.43651431464910917,-0.37789658622190969,1.8309787594605222,0.67075146741779124,0.1435509027300175,-1.3403492527260714,-2.0621863351548768,0.63389105255126665,0.89936558039453307,0.92090513995878209,3.8796939668915504,-1.0009446652769114,-0.88040984080056051,-0.60143998790389608,0.18991723727722562,0.66004198665301006,-1.1763745880814676,0.34950458736089007,-2.6951310520118219,-2.0757709913154678,-0.97421496747297198,1.8204047094513924,0.79636991820677794,-1.3754567577118979,0.6691123440205774,0.97340240874635042,2.3478381871079059,-0.35855193400683977,0.14159327969986515,0.73291266740574867,0.40268707420299704,0.65259617309075824,-1.0550030197908844,-0.18891879342856577,0.053622289266346809,0.28301480256959061,-0.88987828652978829,0.65076005613181531,-0.010488844229140709,-0.20885269853639646,-1.7076051037872439,-0.02089676956021129,2.016135144649803,0.27857641152969453,-0.62888496837452101,-0.84995690353795017,0.4258121800554589,-0.46552568955154361,-0.02858915137436813,0.39067150621906332,0.41071179078025133,-0.22945591585329125,-0.77204635864511817,-0.086031521536708608,1.0743907875122394,0.57732127780437359,-0.57467475409455715,1.2613402445811042,-2.0577996208098952,1.8954028245781767,0.0060142289818808578,0.31425654226350219,1.9585657498998741,-0.1107234946014581,-0.45849039836869587,0.18538762729837971,1.861739980724749,1.3893898666846851,1.4971772586793453,0.43035446410147438,1.0615330687585336,1.5287391502317924,0.79983841538752487,-2.4752893587391585,-0.15884654500160506,0.25324018599969023,0.80125192581637372,1.6420829138964288,1.5058859591062985,1.3908240208908169,0.59148321355939271,-1.1858710923514246,1.6174891180830666,1.024141225836096,1.4343040406152814,1.446914426244742,0.50259342401811247,-0.32036343263737421,-0.70934355777631131,0.79435433168874181,-1.8351875952072016,0.99436459783695774,1.0180756322996991,-1.1360536711149825,1.0036601631562629,-0.91896133185132889,0.82868379311666329,0.59596694717413079,-0.51561460392202829,0.56178291858007279,0.82127710049188796,-0.53127072499480688,0.29473147122447035,2.2960731591864993,0.93567624724753273,2.2241399200571039,-0.23385611789153218,-0.46968731020736004,-0.16135857983863161,-0.0045083649958774178,-0.38137028916753213,-0.01422063855133578,-0.16078378436681634,0.29928823286539846,1.2105057867527054,-0.16764199830529936,-0.96267507893231263,-1.0622317374632866,0.22513109937903875,0.25864450699451402,-0.43810822143211492,-0.38424337860583041,-0.4565188717366741,-0.9754087982182269,0.75657940777207067,-0.43567512896077937,-0.25108001391324675,-0.12178881578281452,0.076313017200460714,-0.40183158217773274,-0.27592869038957651,-1.9500293394816253,-0.4429006081125646,0.9998605494178765,-0.34394826635357612,-0.35309433781030386,-0.096390923151558408,-0.9993203978858215,0.46945127380798168,-1.0302707350618199,-1.5622053112004983,0.66874019502450721,-0.061899763362186271,1.3212131747447504,-0.42106200150472595,0.74056944932495927,-0.61054376958869194,0.49880425532464778,1.6673262242499889,0.91660660516835535,1.2887535927727591,-1.0749844339322727,-0.090383039776853719,-0.20634321180856441,0.55083803426771361,1.2546884071210436,-0.13598781299947588,-2.0647552507866314,-0.76324111965683938,-1.0960712273692048,-1.0702590750896066,-2.3621808051067954,-0.039706389969892307,0.1584156451037069,-0.23828373451683058,-0.25095132778824386,-2.5316141863033237,-0.40700056798779599,-1.1039747837681813,-0.80412984174574509,0.24784611273146498,-2.1118937032283527,0.78699561708883092,0.39260676615456885,0.95865308875227706,0.86232113931776977,1.5409058746317528,-0.75517964788785485,0.26249460830223059,-0.88665033417545347,-0.1139630119494858,1.4556682256830864,0.31244069297789723,1.089628553700716,0.18641093808384784,-1.1493717315795922,-0.20614997498987594,0.79839441020398727,0.80883703386074968,0.62843880994927037,-1.9196987083774768,-0.91280631713351768,0.22175902015786486,-0.83585604038755712,0.091083271966374474,-2.1402308620034374,-1.4739592929667065,-0.83993448144639338,-1.2731361083227051,1.9878800231633758,0.24830897902987961,-0.97139825991996553,-0.67680819710247908,-0.93907863951719051,-0.63761863880178571,2.9717909215145193,0.23044700075383412,0.14303746585955307,-1.0130771532707215,-0.94665946563128045,-0.58402606461999862,-0.09786974655758568,1.1274623797652907,-0.91116822617018878,-1.8580023728719433,-0.96667273214230676,-1.1641284279807635,0.13280069748542181,-1.6400969500051781,-0.23727119961731497,-1.3893627047658146,-0.48026673332472192,-0.83288953632608798,0.35749469333363337,0.77649791536720014,0.11968871579142049,1.3346359843968332,-1.7883004379968679,2.0256940173515261,0.82510809200260227,0.38671926687979097,-2.383790223990673,0.87772740185382159,2.5593114210434171,1.6363532964482816,-1.272482155915684,-1.2970483846521803,-1.5184185760995907,0.73344556364528102,0.77847869288691851,0.20979800233417933,0.60208638306199114,-1.3066380979106493,0.20176808318831943,1.3807487135634291,-0.15745088287390993,-0.74009597982054665,-1.2011859916100456,-0.1593785458922358,0.68058927842922812,-0.035214029946125824,-1.433507488767811,-0.89591736098077301,1.8276550000524177,-0.61561502248481581,-0.45191389035412804,1.8762940817578646,1.6280684508803889,0.037241594178163549,-0.083815262976450672,0.14544863724700835,-1.2636020811654001,0.27528218768838675,-1.0475732427563753,0.66288873313343077,0.018450535038652002,0.63554968179789273,0.14213322793393943,-0.1562276623999686,-0.40807635751500065,0.14929700034780899,-0.66047405661897574,-0.75174749437070831,-0.74226531727337086,-0.25007490443252001,-0.11761791352946659,0.36197910069228456,-1.3164385105410972,1.6690390031083295,-0.57118436170515618,1.7141337638938277,-2.4592589679443315,-0.14330147845313865,1.6442977185158918,0.28283295217039933,0.033038511443617642,-2.5417071962628599,-1.1971546782240481,0.79821824678348974,0.52894739505729771,1.8141611027781235,0.70961341742733308,-0.50404814753193228,0.20168139965074039,-0.37376584167459559,0.018784993855158194,-1.7980877689236818,-0.30332055237136507,0.036240981570384509,-0.044189084433561135,-0.29446248501918909,0.22114914994517748,0.48999735929079052,-1.0938354211240764,1.4533696177707198,0.21327232109456482,-2.4259853380103431,0.57864822962146834,1.5008027974986147,-0.38035776730586968,0.084485028116137381,-0.66022746588162529,-0.82674718563068883,0.24670003780698066,-1.5262205265351396,2.2103393151718529,1.9760158351519661,1.0744787822967485,-0.061985425066044222,-0.41109670141885851,-0.14789800123155786,0.026347958310250129,1.2152374216956967,-0.10011290408691162,0.1196876430799286,0.23634636693943661,-0.59897545084703119,-0.92910204574741639,-0.4177745112160553,1.9991150533215991,-0.96402212853795932,0.39503430945092333,0.36874056008843326,1.086338860495297,0.67253084675707953,0.81400296356065827,-0.32948194199388586,-1.5040709299980706,-0.29446932542166332,-0.76401737107697976,-1.5038431783571022,-1.3991318977084091,0.57361940695296088,-0.24842846779183364,-0.25546923197566179,-1.7757875370333773,-0.3600108360217143,0.75278855833299119,0.13744204326147036,1.6133747292280427,-0.054848166020810392,-0.66925520984984466,-0.43251331564431833,0.38277886907960512,0.47237081900559752,-1.0528086588752112,-0.62456128566653057,-0.5644988495532316,-0.82039285533007555,-0.20711079376301877,-0.49454333935317107,1.382539305939944,-0.055505790783262114,-0.097046207641677609,0.13690463496531655,-0.52536448333172758,0.8357661277525783,2.0025960574470911,0.55945577166227545,-0.014618271534801284,1.2458476432633512,0.41496218412538938,-0.21501908507049206,0.94010640523764011,1.2282053962932769,0.1247399862345239,-0.18748953601756072,-1.1072142831473768,0.90047301635785737,-2.1107783972712015,0.71099998931438468,0.76244690630504908,2.3649434066151502,0.69479016296541729,-0.8444032200639745,-0.2543146815564602,0.10449841233863713,0.072530790939931242,-2.7349528711359024,1.184337026095819,0.033361326848275537,-1.706688304384361,0.68637026178130045,-0.62543381840015877,-0.95319331175770672,-0.66146996800122149,0.68853182064408547,1.1362624548960596,-0.10942764124614707,-0.76265144992885814,-0.2026205980370909,-0.3887537628511582,-1.6357539160818637,-0.64977879796975813,-0.82090739170773108,0.69456742238834779,2.9309222244829574,-0.30391298834066105,0.35079804218669131,-0.52818983158770805,-0.55495805761762018,-0.48630900195947691,0.71219039457301858,1.1874275022691387,-1.7870794309823237,1.4907441029534501,0.47296986262510504,0.31744985388181501,-0.82740627057176985,0.17661812385466319,-0.59715234452522403,2.0468398218201052,-1.0581477743790972,-0.29557872248309847,-0.46366709183032118,0.30088140688780618,-0.37014737596399377,0.32328482841147305,1.911083703210668,0.55426462659812337,-1.4407758419967867,0.17468746154964415,-0.52267051121897334,-1.5833433273269,0.23203812055904854,-0.26261247747018268,-0.028690539699384468,-1.7438330044021388,-0.68676584293452814,-0.51663069583120313,0.19544255578861913,0.67116388998772003,-1.2026083614218157,0.9327503586183562,1.1509609625836204,-0.19568780788917062,0.96999833210186104,1.4931278999005291,-0.5150552328393343,0.21397399680202014,-2.2796879443070077,-0.69613004327450778,-0.96797368678264462,-0.21577805280375265,-0.38833275001629236,-1.2660527109538002,0.46470567330747609,-0.90026038483166593,-0.74892292594668375,-0.75989837181707975,0.3758110445036299,-0.50451390003792995,-0.85116882545727779,0.70982180270093231,-0.42636154086488071,-1.1800693355785892,-0.61857787185755364,-0.69979562180926747,-0.73449114859959108,0.86113516459330042,-0.66157337761487156,0.11785412497611224,-0.86646540905907932,0.19330346988599933,0.10745557999726917,-0.65519212747815669,1.4726295313117646,1.5008701829704139,1.4376173507586112,0.40206383227371956,0.43049977186129018,-1.1695764498422525,-0.40346042791444459,0.61579044179256925,1.940418403510747,-0.041472738868426007,-0.44071410931077537,-0.90346600465092786,-0.088114742517852812,-2.123689730368028,1.0725687599185287,-1.2300002264387404,-1.2189440565358975,-0.13158619213320796,0.62697754069003875,-1.1651854972235272,0.43172572658732583,-0.54446669843523732,-0.071239782170530189,1.4128637329832827,-1.0532733507139564,2.5751261754324029,-0.10703912618486705,-0.36221924867090205,0.75266082148735736,0.10704094494371691,-1.4502454700056926,0.4198858231272356,0.37099972627082478,-0.43493167440409147,1.7741089292682761,-0.5917582422082992,1.353312456089222,-1.5702639825430182,1.3701864460141773,2.7294085080739534,0.6740944243202639,-1.2447063181692848,0.068874972118031258,0.022097332646350925,0.13714936695251517,-0.21802255814137805,1.5067898217093945,1.1641677715956473,0.71673157440670876,2.1063601285890083,1.7911853861440856,0.26178195948948241,-0.20042440563354375,-0.8163033842586368,-0.48166496506519801,-0.86622690284528869,1.4525212491789734,0.66848853918551865,1.7135576399959993,-0.71901359873509496,-0.47265000476243901,-0.43962562675859235,1.9372647517401613,-2.4503042308857754,0.01047489272460907,-0.11185045613741351,-0.83130797839458492,1.8769745130633881,-1.6579860638742501,1.0739207014957353,0.20986859576791861,0.35411587327280064,-0.0042833982547119146,-0.86017010547757367,0.95801238270840861,-0.62838307302386065,-0.46011850117785524,1.2230165527988193,0.66267617946639945,1.9947583589038673,1.2102614991519742,1.808872238065649,-0.64092816508368688,-1.0619067115389851,0.77678673970917123,0.12388859852252279,-1.6272073548526178,-0.58345221294702554,0.11650957146233265,-0.53579276444147172,0.098480938151692107,-0.015198511091041414,1.3241906046394449,0.13319522011100204,-0.23573528885473008,-0.7508152528058043,-0.74843844815238481,0.59913166583984667,0.23371688436267443,-0.034637062572455184,-0.64927909967499464,1.4793427919755853,-0.010624449216155265,-0.03988946795840171,0.29612557003894169,-0.033839642666139605,-0.52874724739497503,-2.1605524533987679,-1.0981891176358836,-1.2063257214821095,0.61169113358546989,0.75610188906497722,0.75030876368023058,-1.0261717894174851,-1.044230993099482,-0.58369193121487217,1.08391265149548,-1.0396351171464717,-0.34636464646797654,0.98534819508436955,1.064034887278817,-1.4409015543345534,-0.85576445272303026,1.6578175113495643,-0.45597936788933713,0.052805500713298439,-1.2763583394940645,-1.169562212791956,-0.69187770163066786,-1.977581976642786,-0.50746234695663239,-0.96148726940665274,-0.4256473502478072,-0.0064542835174098995,0.52910711482119999,1.8669237073157794,-1.2260327032005069,-1.3654063265960359,2.5661211803009762,-0.33712830092381985,-2.417602327553166,-0.18243379000202303,0.8155454765434158,-0.62329985814366229,1.4204095684962073,-1.0478156742591078,0.4604658883490208,-0.46513741595157843,1.0352027474990606,-0.23244681341711673,-1.25312851543978,0.8822248858938998,-0.22409551496913718,-0.43683585833685051,0.94526744335476953,0.47639264761734113,1.0461057426897884,-1.5724707144437924,-1.2147663035330172,1.1847548581638636,-0.29851108014166577,0.097029432821491221,-1.1850282613600813,1.2304095779271607,0.043728911142398894,-0.38077862322855022,-0.63767560191930583,1.1692075597595315,0.47201933127065188,-0.96623323844117182,0.96315082651688844,-0.096690491566234507,1.788070075565124,-1.8757150459750664,-1.0897927516389925,-0.62113587242060264,-0.20649368675746957,-0.62329956728220837,-0.49968831265340102,1.0491085185949243,-0.24517547766523373,1.65960638031507,0.74950575571555333,-0.60150198000657018,-1.1097776426025772,-1.2422311776868391,0.47504602326761897,0.25325502664721561,-0.19806819075697515,-0.54353250469305092,-0.72492469305539853,-0.33037289594637925,1.2112050343087084,-0.31141398848446,-0.41403777927664576,-0.3021959271597992,-0.19108863866593107,-0.57292376112316123,-0.52631867298303048,-0.835041625984553,0.6085124882616495,-0.84501261034678232,-0.62295169006490225,0.96556797921520032,0.70150737651126238,0.86399031402074822,0.43749676298886109,-1.3511912284541239,0.14604152673176818,-0.43927422464752541,-0.65916538173297079,-0.25734020267200214,-0.71426822384631139,-0.61565767341823308,-0.59837959736321511,1.5267290454585678,-0.61405385712521976,-0.47100889396512069,0.21413416807073565,-0.80637034203503644,-0.54364934142707366,-0.21640369671870047,-0.38856222474473501,0.11633747762316637,0.5057769732721048,0.82878560663303302,-0.33734349961002202,0.36085221644324433,0.76478986301943075,-0.01440763730572419,-0.40809164898295908,-2.5633484463336633,0.76148122178386668,1.0024253132216929,0.27199478758332729,0.79276529006316021,-0.48216260562638757,-0.99551101436293243,0.25385308923347977,-0.29550255662417507,-0.056418377717628983,0.32403721001055902,0.19622814243285719,-0.16858595096620824,-1.1360013083833032,-1.5231707022963357,-0.41893614783535499,2.1230231599373952,0.29530719943450517,1.1522515329248699,-0.71377939748655383,-0.3518098928506832,0.64372592102172155,-0.62452638010776518,1.6039360884717997,-0.026786897823788493,-0.1918365815211561,0.93488031153489715,1.001790321485696,0.26368102277125766,-1.6306260217398005,2.8577962634689165,-0.74192330181324928,-1.0798579245236246,-0.88214003229595528,0.075138065851848138,1.4874355028285362,1.4171046080628527,-0.26550100288445005,-0.69274138006373931,-1.8899539907116605,0.51785276254052159,1.0730635522616661,-0.70697198834581254,-0.81057223889794494,-0.62192671317315773,-0.61381486088439663,-0.088760361126976883,-0.63141353702446035,-0.065156781677220554,0.13791794908017721,0.732545705891546,-0.28024102339832108,1.0701989779837944,0.69407297424065173,1.7851539703625914,-0.54954816609766888,0.715932695289623,-0.066576935293194126,0.22567714227223337,-0.94146337710173145,-0.91373018402586803,0.64805601206206154,-0.43168636781982289,-1.2996827434839577,1.7353838334783942,1.2240917963366866,1.5171773230477579,-1.6147491083930743,0.18755034476280208,0.051418827673658851,-0.23986264077388508,-2.0651523749996734,0.39362011217510157,-1.4066465493237417,2.157121738233164,0.66714424323447508,0.33670530244268948,1.4541594457462474,0.66879681058263996,-0.25439675619298119,-2.5936126080925908,1.9934744627613861,-0.51685378703743134,0.27230243021380052,0.19213594566732858,0.28028410869845771,0.22618156495132699,-0.34893097500449716,0.68098335080173145,-0.48833879142019088,-2.3248550204088159,2.3040660275295588,-0.057831587271214138,-0.81897256774770755,-0.039233800538947747,-0.091984811016758428,-0.19324773849444843,0.57239695631554255,-0.48440641121980044,1.6322228811395056,1.9015863166989122,0.46562679991856404,-1.5640186783280636,-1.3891389121077582,1.6554106176936667,-0.93954196207389828,0.72035651467181405,-0.43509910484317155,-0.70262496769431781,-0.18895973751939199,1.5173329876359056,-0.48458547821636805,2.1104899108583868,-0.88840697308865446,-1.2536754814107445,0.24216765034772622,-0.11979276141020502,-0.88420878367687805,1.8255864208980401,-1.6121320651533684,0.94692328745220911,-1.0420581662425012,-0.78584197607544992,-0.20945425466571005,-1.4953554684999661,1.982698844991291,1.0418195471296992,-0.74578984165510442,-0.79674763232699741,0.35013551753811817,-1.7253970009009725,-0.20976542456152555,0.78639057104771759,-0.35158986737824227,0.085162978707913256,-2.6780798805564419,-0.35790035028807454,0.34197211229020941,-2.0800214962368573,-1.0670017845818971,-0.71138913898506906,-0.72311337469568737,0.44111466837345154,-0.88263253507282668,0.77837191140483131,0.27276098558414008,-0.50873089096208068,-1.0187701862097107,0.55991528220050646,0.57689930159973413,0.6450586073229494,1.3909267800541285,1.0772407094558616,-1.5189360097106837,0.39170737252174359,-0.18571047617398662,1.8546182716318909,-0.66539084084721689,-0.23571400567992071,0.087266103496102504,-0.77881511225854605,-0.90639270837123054,-0.14906717277135151,0.37383020142156403,0.021175602031169784,-0.57723884093454814,-1.0619804177127907,-0.97246409780386567,-0.5010824362290599,-1.2349032029585738,-0.74098688397019119,0.81667229386104612,0.96892007123571955,1.6920044979347668,2.1796538736756279,0.68671373225967347,-0.4135993439432708,0.62976488501080297,-1.2197313223007764,-0.35511671409630663,-0.057852434182024279,0.073344595908093266,-0.37531331111265248,1.1218917556972865,0.69097330141699664,-0.78254431664908164,0.52344328213181879,-0.52447019601396905,-0.37405500572525868,-0.66249334547608463,0.55084061768210379,-0.50802941868305507,0.19801336977124467,-0.49364013758415837,0.040220456250378567,-1.8693841950480437,0.67316434080809751,0.85926215691822405,-0.88755850199925568,-0.58125901011988002,-0.35417291211543822,1.1090844839347576,1.2898942743758759,0.79780286553109803,-2.8240807178306548,1.7715599041690593,0.83579611775799112,1.1209535654959386,-1.0381589782249869,0.4083472795038941,0.9647752075518039,1.020098559089315,1.5204499361921702,-0.19411286846436568,-2.7596225587445011,0.55615325637678581,-1.8610268447771654,-0.12438348454026567,1.7054611784390632,2.0740262309334034,-1.3084396673360774,0.053176596112300856,2.4123064616242944,0.58193995557908262,1.827312497026909,0.41531320096040919,1.452444764298809,-0.80872630942193646,-0.30066347860506032,0.71577162218275958,-0.96421754959103811,-0.037871121647209086,-0.36197323359980166,-1.1312179965596929,0.98701620271847312,-1.0038190428420444,0.9469497585291391,-0.56557047388029125,-0.82058084230280115,0.36138010244601931,-0.68908456726625211,-1.0820183348600998,0.42310762114795386,0.59401511816860531,0.56462926342162212,-1.5306749584218851,0.35175444528838562,1.1327686334252114,1.3973828081400768,0.6862375165862441,1.8967103076333713,-1.9739204927351892,0.32862195266591981,-0.26675373424171195,0.75135106611593472,1.0211490420699056,1.6672986773650245,0.026577318396931008,-1.3701654314790266,2.8429217047970332,-1.8793044961034404,0.92854677747346126,-0.053067271704084922,1.4942689970695047,1.2265896860594003,-1.3257882680385507,0.31151064179148497,1.867713905136736,-0.33055839143325738,0.28132707651484018,0.081128518865250562,1.3450800551942443,-0.90591412757563261,0.51798152631128902,-0.040877354378301943,0.87470471471597988,-0.49813209017932764,-1.5405113459242716,-1.7415231090212375,1.1283811606957737,-0.51512234180811611,-1.5027726692673502,-0.09866579804565738,-0.1977370379859178,-0.86207374810916171,-0.37077949063254184,-1.3928261417032717,-2.6392283877413476,1.1389917021423586,-0.863678844136054,-0.54247487904474601,-1.1902720124924198,-0.40339025400998468,0.043961710598335153,-1.6851104162686168,0.10139801073687348,0.4576504404000824,-1.6132564729815979,-0.022866405223765304,-0.13044805710312185,2.6503034853517033,0.88082863658522281,0.15402371170590751,0.01060567705291463,-0.72836426059837744,-0.37176891082171853,-1.2753455187902556,0.74181254866728807,1.4142457789554339,-0.58804169918092386,0.26999007774089862,0.49779666579135251,0.83727224419982971,1.2211032061987794,0.34581569987255278,-0.32285105642097905,0.85377896962683619,0.34102391637139046,-0.69506590618724495,0.40168707786616192,-0.818083145169341,-0.72172693602489013,-0.51258027757212477,0.64612328090783255,-0.59503074143651591,0.86114171287646157,-0.48732635485053921,-0.80810239601249167,-0.18226262673698831,0.76541331595052831,1.1283556535413892,-0.12877447176765655,1.9075932939432845,1.285275750228259,0.61104679534257722,-1.8979253354062866,-1.2989277588398871,-0.0019846283345482272,-0.074613533875479254,-2.0878143621940071,0.69456536762776822,0.13273104319213658,-1.8748189641631083,-2.0261304725012255,1.3075319007353436,1.5302699554052841,0.58353112842763299,0.03041469637036337,0.13619491645216938,-0.08176427387483011,0.15434671532025396,-0.32805388477551806,0.91978689564667415,-0.047082677286873688,-2.0112348016433597,0.91756927855056514,0.53578371847317552,-0.40963215286456101,-2.143308618566135,0.89947914811668983,0.14252401943128937,0.20765418947982736,-3.7466691434251187,0.7588125706417348,0.19687913812818605,-2.1587150833734543,0.90216545601712339,0.8136120469174094,-0.0093784589110818134,-1.7758097225117579,-1.1993168550467954,-1.0351912695031233,0.78231503031901062,-1.6848530399051969,-1.0428592504929532,1.7333407043340405,-1.4497403896004779,0.22519612385790005,0.36275774215226625,-1.2335073679542503,0.54264958382169082,-0.62997919958379089,0.88455371411941119,-0.14988149642753482,-0.34296401283475786,0.067160582519637746,-0.026937009316725838,-0.28365024153812746,0.21153561500129497,1.3479878960056428,0.15688685028476909,0.74689794043024205,0.15363469852409303,1.5077819681289415,0.24824185266699622,-0.98366417728576061,-0.12452446327657959,-0.1478340353109521,1.1108730333013441,0.018237905825757222,1.1357003300829935,1.2382080702189084,-1.7705461348199292,0.44200907287796815,-2.1878928585116233,-0.84478572809010721,-0.45619987859233208,-0.59358689491791483,0.73951272285260383,0.4243540532185171,-2.2271904482059703,-0.74379082104594774,0.33749476515423699,-0.83799300981327107,0.5029129073517139,-0.45508746151611917,-0.27349219732128299,-0.31791478906134119,1.6570244014987565,0.27437118705475105,-1.4968351952803924,-1.4170734327464052,-0.9121375603904821,0.13338832665442465,0.16630183033617754,-0.42167936095423336,-0.32070432063953769,1.9912733015487791,0.88667319885768781,-1.1540501951232314,-0.44354500244267553,0.10542376954804243,-1.4847586784790765,-0.20938335182585349,-0.98488525915299552,0.86432605552629183,-0.24438904951039761,0.30199106845232199,-0.02971183835612318,-0.59630886556397367,0.44790947940296832,-0.25152035726835104,-1.9108540896103994,0.072432055287298749,-1.2029891473471943,-0.34163074201085286,0.74946636920108778,0.97425376290235655,0.23348924779275512,-0.31003063845576073,0.11935261198478578,0.063233682993997953,1.0445983466233841,0.59776442480120773,-0.41524444319343612,0.42751750161529284,0.3684873317679877,-0.90938584855328175,-0.017003020338328685,-0.4376895738897234,1.1380682889219709,-0.10044092297868026,0.40725151294876721,1.3850713231643075,-0.31239157106891507,-0.72995719649560931,0.64003426766798954,-1.3390052523410949,0.029010227395095456,0.21611143530917767,0.70435519678711789,-2.4214530605610878,-0.47786651646370987,-0.76074463113624158,-0.34705542726256222,0.39258589352394457,0.052215400112608459,-1.8766118269202514,0.70552261850730635,0.66713000802411504,-0.81967073712673699,-1.3704996929068061,0.13493606965779201,1.6839205280559633,2.3322906706464406,-0.7164359854732929,-1.6875976474892982,-1.2635791666132907,1.3001020420053744,0.073421802268078346,0.080998657115386383,0.70786133386188355,-0.25012150410677209,-0.15069655516876507,0.44414247959803127,-2.6075332686716575,-0.72081543451762675,0.42812631762134368,-1.0135767567110321,0.21150423385636863,-1.1961730300901106,0.55363637025220924,0.94351847747467232,0.25673555964933364,2.8191407938262087,-0.77181045722839947,0.09552633242565188,-1.4906334478040324,-0.87046098428647167,0.39849766772882528,-0.43409380219663074,-0.15924777666598949,-0.50383472400502882,-0.3531668858170931,-0.46371334927630514,-0.66892600868676699,0.1172963700076366,-0.43538961789546937,-0.52274217809335455,-0.3248143132900897,1.3169381231334776,1.6915798902745252,1.4746063509226197,-0.58432796593439129,0.35891668902463697,1.2331186683712554,-1.015374302031649,-0.10907562322347208,-0.42866419982681375,1.6170915200271487,-1.6358713737575219,0.83277392269447303,1.7489918556113293,-1.1703453663629466,-0.30089618329107021,1.4008122255057556,0.52026112868334295,-1.831324511737118,0.98885644534050543,0.44255611630838521,1.4231924579734017,1.5096290771457261,0.19031261593412258,-1.1627002773555424,-0.1967629346876105,-0.09839489366328151,0.077491991443787198,0.23492501412486058,0.34512293619040324,0.023132972696189368,-0.86752823615852959,-0.45360752513023667,1.3533238383404742,0.37049432913348285,-0.57940598358982409,0.2508527185253136,-0.37314196948480871,1.8862119194909439,2.0477941611094495,-0.26271841508117683,-0.20903591506667438,-0.90920833047439897,-0.85230059602373553,-1.5275934979130723,-0.33072363096821317,0.47413552408722037,-0.12572698639482979,-0.10199553511811173,-0.57542051849375375,-0.37458977123253506,-0.65896981740563643,-1.3629274525071926,-0.33381245678886406,-0.54351926152485253,1.2808552595451332,1.0270819285968666,-0.65881227602422843,-1.0433659455289435,1.4927343335759886,-1.2403347510050151,0.59659845717658622,-0.86067067398599562,0.1756655030659289,-1.593169842729848,-0.17848647906313886,0.6165437017465013,-0.13983932978127717,-0.28901852954478258,0.060767712573337428,-0.19668242854902054,0.80906655414220296,-0.10556497586501244,0.77265437552825889,-1.2020650918572775,0.58158952750887716,-0.64504082100329641,-0.025709965689485956,1.5279330049935071,0.10108044212592385,-0.054799630541275644,1.7108487273822024,0.55527209259635302,1.0451149658052725,2.3364145858169767,-1.6992987228565692,1.9975881381361273,1.1070266121859267,-0.82283997905777229,-1.8638040247872247,-0.64780475346651423,0.89486492452746003,1.6160492538695992,-0.97009078408964389,-0.42120996192438742,2.2192515879128663,0.29791810534806712,-0.99523723851555279,1.9713132241918241,2.7634817474183677,-0.87064968764418071,0.5815435233306917,-0.40696799872149741,-2.2132179154459912,0.84322519527301987,0.33084053903559718,0.65341314157970287,-0.0076427212076991755,0.69776568818009999,1.4318685218430265,1.1158160617608288,-0.86478116731455512,-0.52723152482894065,-0.55287652681654864,2.3706177665128232,-0.68088915558978069,1.4668804299214475,-0.70435748000180121,0.1139634798714504,-0.45239318193345024,0.49171538392569442,-0.11656773154960685,-2.6739854186231802,0.055196676743900656,-0.18093319396807872,0.77320369451382598,-1.2514145468924112,0.59686828293832395,0.27232339714371639,0.62711205546817572,2.5664141164146921,1.0543716509908074,1.1272738662797537,0.20958568278115258,0.011111064556720255,-2.2452006127849851,0.85981015263755067,-0.13899674385736047,-0.39544467909307823,-0.28246051841922787,-0.34610167634852695,-1.2954847124874782,-0.31662759858896766,-0.19180763812318519,0.4862240348009369,-0.98857960926889132,-0.76887307533248639,-0.05206057403081802,0.51440377043487262,-1.8669553483022241,1.799055313015433,0.21444340118556587,0.91160153229415541,-0.021197496610989748,-1.7627835226749204,1.4042289052805588,-0.3689411195128362,-2.5337777701259485,0.5538406345620982,0.49455308167264389,-0.069111582886730125,-0.52837236992471748,-0.48574332263176545,1.1078346545407778,0.60280743041042417,0.13474197866696402,0.047334396019512018,0.72296249568720683,1.8046864449812043,-0.88104825360106376,-0.049090829912040536,-0.23861899001722914,0.73173190049707837,1.5909142744534555,-1.2205821774699981,-0.33367712958352069,-1.3796238118787276,-0.40255358481557929,0.16963497492577653,-0.10284230373731486,-1.8950024260225364,-0.55975115396125763,-2.373644283837832,0.29337055089965869,2.0897847851778888,0.75628772334591765,-0.024731103740846985,-1.4006819618538009,0.79015262199057235,1.2485436218588986,-0.2442994641348368,0.50337868478521686,-1.0232703305313653,-0.73354152728828625,-1.1741898668261468,-1.3306364450020407,2.9964115691968476,-0.23245101801952583,1.8217537723392454,-1.0044472184905051,0.74058499514153342,0.96911305941016113,1.7976974619487898,0.4622949707387301,-1.0247325018145437,-0.48548709865860434,0.26173851130066955,0.96824332759246312,0.892362411036137,-1.5592745984432104,0.099124044163944325,-1.0349741447085612,-0.20263774355571795,-2.4095307042148058,-0.3890751574429841,0.42318779435878201,-0.75625206986729165,0.016359154458218363,0.8061738184079692,1.0331618764346633,0.2235780652961992,0.22317890665959142,0.22970538062773377,-0.079967515023176838,0.21696135517148243,-0.39152518529630337,0.21950286722680598,-1.1398194707125615,0.79410015543486012,-1.0784636874947415,0.81756119057915666,0.39724700217296827,1.0795150621653651,-1.4142750441538736,0.90645988650203901,0.8221539858461826,-1.1912519500580532,-0.19485707974506769,-1.2359531568963413,1.2194855384768086,-0.37073733908227657,-1.1290388943396308,0.89944124909142043,-0.18016163057848644,-1.8836570808495714,-0.20816232136025331,0.3786535148027636,-0.50351721664458593,0.08724418265425915,0.75987050042118576,1.5128588202462101,-0.4778947972327508,0.046119619780553615,-0.67932108730417129,0.20116013553116058,0.21337184862384526,-0.8932780132822794,1.1873755410938995,0.48960674267925675,-1.1582330611801654,0.9366688983974526,-1.4363639875714291,-0.1055495248910446,-0.77392714836765253,-1.5297692993433922,-0.0014764481919126448,0.22205774622250776,0.61741106265575918,-0.57698605472107423,0.98037901725668597,3.5268889077038255,-1.2211199089203875,1.0518283655379486,0.71101057577413973,-1.0668242805391672,0.16713510795978573,1.4369183640495786,-0.24177836978664391,-0.18519859821069054,-0.74644515192921812,-0.2090357641635118,1.0066823800301476,-0.20086039498866215,0.3683372036566821,-0.14092733932553225,0.49705738633379914,-0.58427055992309762,-1.5107147942483945,0.53798360139500312,-1.3872372107587017,0.62176512028214315,0.54817105683097411,1.0307395589115387,-1.2619029464760392,-0.90992860873546733,-0.23156441754579127,-0.31375449659524107,0.043390495714794412,-1.6778741582474348,-1.1890758575192677,1.9835755828420367,-1.2667245455376719,0.25021230525621113,1.5638068481076288,-0.96776648695286027,-1.1901161013458981,-0.72713744791884583,1.2028120250506389,0.13998025961970573,0.14133301644900623,0.4767764312941194,-0.077675285037831041,-1.2664361253249765,0.093149738422967143,-0.55980781500980137,-0.16295316376134097,1.5169459809536767,0.040865191819826709,-1.8489905848709343,-0.56378374901501271,-0.21590658263503859,2.856484497290158,0.85071551410202573,0.34999246304449244,-0.22479886340650251,-1.321756962371184,0.59331518722351595,-0.77498222081301005,-0.9632618079530636,1.3719458199599572,-0.1668581078016797,-0.42678026070178782,0.54019145927410095,-0.14906111550947673,0.88874051110228813,-0.44761533539437875,-0.24104029196145024,-0.40286317981971831,-0.64245736500086603,1.1563596019421138,-0.95697663475759953,0.56577419693597841,-0.17901276068186198,-0.2290379875956137,0.88889018975932965,1.8046256008103141,-0.14885106998761405,-0.12858172561556303,1.446166759564907,-0.12956171724724261,0.70447239067683343,0.6075311000510637,-0.12688611509040512,1.4383481794637278,0.60440984543322052,0.6788482259200096,1.3237624165955586,0.2814078959342674,2.051708826981133,-0.062368954955864843,-1.2671179693161787,-1.2660086457850963,-0.74031222817115372,0.19526886074569821,-1.202777311031298,-0.19941989530891546,1.0614094671873548,-0.64157560623063137,0.25647483429005374,-1.0548655178443931,-0.0086316163491113335,-1.0101991052308388,0.10510220902774475,1.4226625532293202,-1.3790850799549017,-1.8212484027944345,0.42628594580374302,-0.11833182892027543,0.14119872090010238,0.95500903362624368,-1.142164916542671,-0.24241682827237385,-0.35950384828007381,0.82872912747559557,0.39303543121304502,0.60275854657152905,-0.56152877903959586,0.4440953889596248,-1.2481032501162801,0.20762364474487235,0.52793006015138633,-0.71632136769848331,1.0825639024496538,0.14932735012420359,0.073979160141406222,-0.93517929073115769,1.5517318996287079,-1.4639027444823904,-0.23040598467423873,1.2262381679122956,-0.62406805397034526,-0.53293066694934732,0.20544030668963709,-0.12840498860244862,0.19764682080416757,-1.3216907231256985,-0.69294285062954475,0.70076058938180941,-0.52225251108342929,3.3525118087244068,-0.13210982690121742,-0.18980336919150223,-0.46312255026515836,0.8068966156813453,-1.5288938716320681,-0.14876855040808154,-0.79251616363433808,0.56972126744888507,1.5537304461876882,-0.41047563541976712,1.4279099929960857,0.29415961999986789,-0.12895648715702818,-1.3540464779478274,1.979768031033341,-0.53023336780725128,0.69598834318176972,0.97583279000332734,0.30376800390595654,1.5502088431260759,-0.69548531179175133,-0.64593869414300054,1.1847204001167373,-1.2405899847380821,1.729890021799857,1.3836542895320825,-0.24202611940735316,0.69790235590393535,0.73683651243949733,-0.15509889977033628,-1.0044284492233289,0.53755630464056936,1.1229867849938744,-1.9950447467921897,-0.016196645223470328,0.13528525134457775,-0.31439809204329727,-0.5702416368260228,-1.5202079398480342,-0.0062869400629931215,-0.92992280411315298,0.10955709696352285,1.3227072547016117,-1.6720967866768157,1.2973125684430116,-0.86375902141449801,-0.45249913340896902,-0.76115918085392631,0.24377929175209576,0.29213598429697057,-2.8901961471824258,0.88070076405046904,0.055824298085844062,0.43016405691544934,0.18672780080961007,-1.1380255999071094,-0.95538612484202257,2.2802151096135668e-06,0.42047338143853402,-0.83094670797613357,-0.92654886460864982,-0.72762413775240364,0.98936413658689548,-0.40995019566311536,0.47167044253068124,-0.6168344795513,-1.2654015335833413,0.32033119016946798,0.090851917523988648,1.177256201799771,-1.5585245914399555,-0.06433623617212679,-0.071425731013889548,-0.011013763138690392,1.6504666688256004,-0.31518179405541119,-1.2757259215153194,-0.3972805344838275,1.9491537052228514,-1.1743109900994104,1.4306769747576862,0.031536830330469633,-0.25269674999158198,1.0005710606447467,-0.033346533831262529,-0.19541652409748958,-1.1916061623194396,-0.14866431968535418,-0.91276676466024709,0.22222650885841161,0.047974188254913709,0.082577494593380915,1.0125154603497712,-0.3447976442687003,-0.5547212232841604,1.0306593938952044,-0.62473324912355876,-1.5618384843011581,-1.6383003529867335,0.48069514151525305,1.3138474409154446,1.3633402235148893,-0.26788915335966679,0.99337706508280066,-0.21511110652419055,-0.80351140171058144,2.2377712897948689,0.27452954848205352,0.12964402559129098,-0.44676016219541315,-0.27818906558389561,1.3515493326786348,-1.2944660409889428,-0.44506679991793313,-0.4049813774625865,0.92708083950460651,-0.30745545039002187,0.066064793325880708,0.13107053884008216,1.3544068643261091,-0.079686891334910234,-0.35386338159042308,-2.2425488760649093,0.59801096518095997,0.7803426997526941,-0.57885063334941567,-1.0532548708135498,-0.12269646829305104,-0.36067122823840658,0.91406948672835342,1.6072724676379826,-1.308740629002513,0.42421994812117864,-1.232753526519982,-0.49581160344558384,1.0826326563609738,-2.2115764403788201,0.0043256725345680513,1.1413115108158383,1.6062363134038384,-0.53282390569689075,0.52162694656265962,-0.89372549699763937,0.69301436764856506,0.35257044606666355,-1.5085021021519318,-0.73415047589038729,-1.1898623121888212,0.041825631482471072,-0.32799290285963412,-0.73677041986365222,-0.0028418470695246493,-0.84760110632350882,-0.96227070988414865,-0.20359826831366687,-0.88530763167378368,-1.8187591788804698,-2.2711951840227846,1.1381347486023772,0.81566571721218284,0.59884762121387414,-0.25104992448578223,0.91912907727304061,0.31419045078996249,-0.58330547410144806,-0.202954768068699,-1.8741058111819875,-0.26941292358821306,-0.52962478703261995,0.75013245973922937,0.38285147918683005,1.200708596683052,-2.0225765497883663,0.036709956894533026,-0.22601981303236363,0.73947427426356493,-0.12711967426253767,-0.042032321336026988,-1.2363197506624179,0.27167071117671099,-0.39574710433587063,0.79028456494209076,1.0759237299040978,1.0828106974208804,-0.19584550986253402,0.33420776140291764,0.1348469846858612,-0.71772629858684223,-0.41816384733205242,1.1854046366983517,1.5683463872771815,1.0314780618060981,0.15430640245262872,-0.55470691897465252,-0.65454710796681181,0.42388361695453691,-0.28454032390820477,-0.59377255320158417,-1.7531964082449898,-1.2908892304002602,0.84942293427592219,0.27723421462500425,1.5560482580330544,-0.64902352791609341,1.4524268335804444,-0.72379171961618127,-0.80863249969108286,0.229772366871209,-1.5785765153337834,-2.2412771178239144,0.85391093827819775,0.54238741934148271,0.65910367043911799,0.88938925566044547,-1.2162003105543391,-0.38378161624548879,0.86098325506410778,-2.3236596634418576,0.59886921831904683,-2.6217686684659172,-0.25266082033987458,0.4599289155824981,0.10915017391192944,1.2816865524176122,0.87729589447271827,-0.096404625006103306,0.91441425300319601,-1.1010734280027603,0.0051062157576082044,1.4821596477303254,0.54181501826258782,1.5655783231854812,-0.86785415150142708,0.73751050905563909,0.28804566459093012,0.15416426032567551,0.76827181469838646,1.2991873438177195,0.88513778659405695,1.369601028003741,-1.7398960808531332,-0.82582998938164853,-0.50023836452696557,0.81954198310025539,-0.59536366063650525,-0.26018040544694332,-1.6546914004482725,-0.277221732931758,0.84098359226114205,1.0462349213305284,0.037304351963163257,-0.64144599013939507,-0.04677477682698087,-0.87124050940827136,-0.77394085340191143,0.69837585946591663,0.06593362549238585,0.87854254823545319,-1.1078788564348887,-0.2324792573608539,0.39219906950528283,0.58263628396393019,-0.48591726409559222,0.5216145564930843,-1.2058849566059173,0.23069694219145009,0.20334585114246886,1.9073311518135205,-2.5042223938661121,-0.87491182483639929,0.38314818305464154,-0.47994648484399616,0.32702158085815936,1.2237515783922144,-0.76267518988497873,-1.8050148179377898,0.13197012849202172,-0.89658689873593789,0.22672930537006206,0.20475612949139788,0.29729922194380898,0.069478182680164258,-1.3926241395486292,0.40647572152806627,2.4950436387057149,0.32386937636190005,-0.18439276507256008,-0.15329786540521437,1.3222894130574199,-1.4718220617121607,-0.15854159792713823,1.4911068362693782,-1.3693212684775122,1.1815921092042394,0.075633438838787551,-0.0056400711585500914,-0.36362694420117553,-1.0608319221343008,-0.064157407785062209,2.5961863081958141,-0.7258487224279897,-0.34017890334203732,-0.4607690802571982,1.868590306003558,0.23938085469534515,-0.58943242547185937,1.7931263948470049,0.71369531709429568,2.4542789112221164,-0.6171832927569475,1.1883504080534608,0.17766703756072344,-0.67113847769132395,1.8758420983550539,-0.5982218853981689,-0.54140593140920901,0.98296417543443171,2.0773412929167154,-0.13196342487968624,-0.027839403161257638,0.54783300000879576,0.046215905168265486,-0.32078463561851051,0.54272430660206672,-0.78830897555226953,1.5190617076111936,-2.1772511125908713,0.32124200122464713,0.24432505371272445,-0.29048024097700997,0.16661219386135973,-0.68578275795681054,-1.059720900604306,-0.63641336165143603,0.061479020288783187,1.529179431463997,-0.41851050141785739,0.040411024504587861,1.5880038682403514,0.72840371913171786,-0.020691098855619518,0.022385548231970864,0.18556135266392262,-0.6542648082194894,-1.526460760944484,1.2278533004537395,-0.083573931218553568,-1.1358623925275406,-0.66131786461387776,1.4000333195803765,1.5788991480008638,1.5166056602436424,1.2388064650940609,-0.57207509251436495,0.80427711474248753,-1.0580983482064084,0.64744240046909385,-1.2039159166602107,-0.16299152864678687,0.35672538968651191,0.91577182362104559,-0.60291359620629381,-0.4595806377898442,0.52260257874361626,-0.07326342415900032,0.47916587223390711,1.1803701057632523,-0.63988023408490002,-0.14813393490545809,-0.51422716210152508,-2.2600081555028,-0.044084287975055161,-0.2876603246242822,-1.0417021240774238,0.21419384432178518,-2.676681569328764,-2.0839919023276372,-0.46684841456234871,1.4127346130835441,-1.1276153365270907,-0.90962036056879991,1.3220453284900322,0.068120259664926575,0.7500622233324592,-0.71879541814780912,0.41876468404996553,0.81304337325532006,-0.35786201105158821,1.4808949967157963,1.0804260189836676,0.058253588404915582,0.1167620051596179,1.9826431941409282,0.33933845488055614,-0.016702103440531781,0.63365012989956659,-2.2939006669860231,-0.072599923909106454,0.77373249780236375,-0.31282261426160962,-1.2346016841029175,-0.086192886460344703,0.17097558303888924,0.60277786168445413,1.5479577717615458,-0.45673958836884088,-0.28251109177268419,-0.40704288511263326,-1.38448374007293,0.13639618312340038,1.8389076079279711,1.108758102102821,1.4697951845257078,1.1999108625280726,-1.0000778854154084,0.12633055696851678,-1.4824120483968248,-0.11166336758985475,-0.9635062230796182,0.81246825696017844,-0.34875733934312031,0.15460482533747749,-0.78243937912482797,-1.6701156628241425,-0.69657686098669835,-0.53275100899124839,-1.8092836842600957,0.48130836418842771,0.57371185278426351,-2.1578268912471295,-1.3435302557946334,0.49551040689335957,0.45577521807189142,0.00093191443305779421,-0.47148085367711623,-1.4010436218111488,-0.72868335327766076,-0.33723108370237354,1.3364089725203225,-0.33380848648889599,-0.74700141683270882,0.98527954669515794,-0.25875108689071913,0.83279833583421758,-0.41681840929256297,-0.75145183227278078,0.99347467267472878,1.9741741751499384,0.36391990307967487,-0.89352168680984556,0.36955474829802926,-1.2584244911363087,-0.75322967050258416,-0.87631646769694616,0.13204213881233412,-0.58018443013216869,-0.82747302913692056,-3.2777131494332448,0.38833398271577796,-1.0665634407835611,-1.6079450392391825,0.048689585012908938,1.9449383429604949,-0.50864899193568813,0.26521890432979717,-0.081400418796728144,0.034766753477455885,0.040729000335763155,-1.6170543041955883,0.69445913863007991,0.40587951407292278,-1.6416772600094609,-0.35879759157821434,-2.4109124149891907,-1.7822547544889387,0.07151960187741907,0.5802456853120771,0.7535232579739336,-0.60667398510775083,0.16246621212036697,1.7924704709756483,0.21970031341045665,-0.33000668697862201,0.27500807029275348,-0.13147451208002853,-1.0405662682036476,1.0221639079299387,-0.69298177383663873,1.1990842759580664,0.36856868148301158,0.58274686171682477,-0.049840999130272054,0.21736835058028633,0.15190725952689171,0.51672161011220863,-1.2697104343188534,2.1894641250235543,-0.6500350332298761,0.1869258418762744,0.17941482594841437,-0.28055305489986615,0.021229230691767045,1.0404075214927444,-0.59223237659169925,-0.057602451801897409,1.0891269934533745,-0.35193233107842042,-0.81539920075673866,-0.18196994282225304,-1.6453677170054777,-0.48611270348525987,-0.36934611408785645,-0.39349254121331767,-1.1209212936442572,-0.023607015494496845,0.12332909146341381,-1.6620935619499786,-0.73166287531134711,-1.2366065648275097,-0.20685594807241514,-0.053856653266467415,-0.80321137693183553,-1.3423168090377473,0.56681235039071121,-0.1346777537248228,0.62509538068531711,0.88674278131913398,0.49188618352305058,-0.35193822672390795,-0.9447978963763124,-1.1020163379257499,-0.46076937058576478,0.30824245666140393,-0.27492573060846554,0.13617762627955743,1.3771561368693284,-0.17551557711991164,1.4513015639978317,1.4153465096664806,-2.6711411960732092,-0.30642672239444613,1.4003763245962813,0.32052230363544665,-0.0022775408672255676,-0.94346876378479616,-0.3714094189849686,-1.3024557641582186,-1.1865893578841005,0.53184690845810012,0.4691261366702042,0.76722012902032477,0.12998291270410781,0.78570299213086214,0.92621789013613187,1.1639167000441291,-0.92378487402851817,1.1524404827849848,-1.5519305997187569,-0.68259925975023306,0.71851166953026246,-1.4554932882428862,0.81887258460590351,1.0016938088349283,0.78400555162731755,-0.21863788296706216,-0.42824113688955084,1.250916974661487,-1.1487339344400784,0.67185036065844883,0.77261861005531018,0.0072277173065707061,-0.39677797952164523,0.73972568361626889,0.21446482772599437,-1.3621091004833392,-0.49999384811020892,1.9684278755025837,-1.225278187444339,0.039833197400982269,-0.80988382651146995,0.76466778037747463,2.7290246262598288,0.71148402410436407,0.90093238459630087,0.22529843062223281,0.59823452692666068,-1.1782887024058779,-1.3764176348535315,-0.55799891778062838,-0.041510225382993274,1.1382739390178758,-0.43440421809533025,0.44985251656764103,-1.108497831064899,1.7702066521317117,0.30749209475980493,-1.5500656049894648,-1.1579433299119952,-0.29911693802492489,-0.045998974307935876,-0.21448948235086682,-0.583846421509713,-0.92027080423879137,-3.2081314897228523,-0.62803481424107532,1.5672857856355342,-0.33917705188576874,0.0058104099098375168,0.27355550738250894,0.7038587190928306,0.30391266960855812,1.4148546449843526,-0.94888128517804593,-1.7392152432568651,0.2312898848192512,1.1583667492884078,-0.44263835162462645,0.24753874022220476,0.14023488293722949,-0.26145828385551528,0.72669398394249174,-1.7843357186040849,0.076961924005543927,0.10643297111219104,-0.44662174434303159,-0.54292677729227323,-0.75460471744994062,1.342752454879786,1.6361498041347409,-0.23523070973103952,-2.2393990041568959,1.0386305191948804,-1.8096768087910136,0.72959088452864318,0.34630038037948835,0.83523756100289603,-0.35390827059375157,0.81073851003618458,-1.5526000784480831,-0.29300423377095841,-1.3077035124396477,1.3636518879876223,0.49365073885069305,0.3670342249782953,-0.7350679997119155,0.46090373779811888,0.47614283210896963,0.029303736006252478,1.0709894240091953,-0.43618898075272999,-0.94305080462694435,1.4727370394094794,1.6827038829140089,0.8707005947069999,2.2935194538184476,-0.30480431734966024,0.14050326438289948,0.46693879570883623,-0.47181937483397224,0.65763785055531765,-0.26783802345762114,-0.61414727099251532,0.96081031970655428,0.16067618512733781,1.1277844487268331,1.5867905624400633,0.568185120250145,1.5027859409062598,0.020215177416346108,-0.17456462688014651,0.29389231527006637,0.2712042788357199,1.1900091998371454,0.91363667504647228,-0.27610351480050693,-0.09689840629982166,1.5212217772191317,-0.64629536475821803,-0.20381661506057502
-0.31002467769800912,0.14760363394959802,-0.92803855317143846,-0.59939039647948045,0.60883749304343071,1.1291161332499,-0.33937913495340988,0.13418114356358099,1.7327216540777555,1.0824866153090977,1.1076339353213374,0.46306810093272693,1.5465035102010849,1.1001842696112993,0.13530606233390663,-0.8849244706676006,0.43485088316150949,1.1052316018749202,-0.68287445359959609,1.6058391553089768,-1.4585091974879065,-1.2640266582495387,-0.2025508357093852,-0.2463978282869029,0.010703818487088563,-1.0424113331922451,-0.064276972049404954,0.5973127234008635,2.8313338328917284,-1.4281154818615132,1.0668699868000635,-0.42178641297198544,0.73665745872261357,-0.59066296209304114,2.2461810938636884,-1.1461403852759657,-1.3067814502642714,0.41746829525679441,0.93183654018500506,-0.027441166026167026,-0.38428281759775262,1.8188940137313649,-0.69925400181271746,-1.0620632064566833,-0.70193582716059988,-1.0399370220547606,0.09678211411860406,-0.14141367651289263,-2.5895077917454201,0.91356931905765215,-0.61427710102471011,-0.74010004458944134,1.5539846472109129,0.10205493372715925,1.491369784521305,-1.0785396358695531,-1.1495155909325352,-2.3273351710785661,0.56649157493305602,-0.066370271754409738,0.70194318028847402,0.62145210653188843,-1.0635349236969591,-0.12747597229509619,-1.9548030742245424,-0.99816642182137805,-0.013165888275314805,-1.1192559615377025,-0.031015983039200928,-0.36900836364757172,-0.83446629100332903,-0.45116945982090095,-0.8587029665425624,-0.34542155929316104,-1.1855739072031257,-0.29580643735540524,0.94354556400523992,1.5322072730455172,0.57592661639805764,0.28319718816653844,0.50185751430922998,0.098241856407395203,0.56735848154875879,0.4548806128808387,0.14806682739527111,-2.4751526472619263,2.6164144813526717,-1.0844937465228481,-1.1651523110382713,-1.3390803017759778,-0.118481008444269,-0.16213141633771674,1.2709949634661166,0.3444044278909032,-0.74339472794936778,-0.49462794759036477,-1.1197479359193563,-0.83179440452674036,-0.034464758913543697,-1.9346422251550777,-0.081448075301002495,0.2320718894461504,-0.33273018198733284,-1.1631258224886223,-0.45212862048600111,0.10400638946944551,1.2407690268298313,2.6471682529087013,-1.5354809836080834,0.99763849903563662,0.44922378838912591,-0.23708149761697001,-0.64268177586699771,1.5265302767866478,0.29023663441631392,-0.24903232443795151,1.5876498124072735,0.0048651041413304242,0.01600361337847105,-1.1195744114168742,0.61285107205681844,0.070838102392463617,-0.40817311539876522,0.30741294931102431,-0.42000143677057644,1.7567682707359096,-0.34092286542375061,-2.8416104725094473,1.0551753850705567,-1.3007388608431083,0.56253728694618621,1.5901765107310595,0.045049907389072309,2.0605023920189627,1.1032355638206002,0.76685023928433815,-1.5038485539238462,-0.019920815157454655,0.18666819531751894,-0.29661861932863809,-0.36599899654566637,-2.1697615018476513,0.63491714012294975,0.90892611356287933,0.17174421946752305,-1.2003338370545729,-1.5980130398498844,-1.0098454896657145,-1.0289822390188426,0.087856500202864812,-1.0718190568704584,-0.071203046715426502,-0.80294097930057917,1.4417880331781654,0.36961453020323892,0.47098503953846454,0.40733359210564019,0.59997914357988624,0.44061609552413783,0.04048030819573839,0.53793013276308477,0.65263064144234906,0.059353701701336498,-2.285493927595426,-0.95994812267787932,2.1328927192067932,-1.7510141100799168,-0.52150213032424397,0.76397030161819868,-1.0260927762484766,-0.077020184199290048,0.79532376858441267,-0.5096348755377621,1.5709672012199509,0.5485627074773558,-0.33495541371540466,0.77677187223066024,-0.18023344184279366,-0.33718799165711499,0.7893988004466278,-0.62194464174856368,1.3333748939217909,0.13800962495153321,-0.45763558262861403,0.36551601791945909,0.93292566118925591,-0.83315312602297698,-0.65722409215679711,-0.52843178883722841,0.31232891785109185,1.1115671797311881,0.61918658365770918,-0.30388281554081992,-0.42731577682159022,-0.68026027362760988,-0.1678837479925957,0.68998557443906361,0.99907560252513938,-0.95119718250436136,-0.31782123165974741,-0.85752531371803387,0.38818157719523505,0.84600793939564778,0.053333546855350411,-0.65745254607869152,-1.0880378230364292,0.35580751902952068,-0.31935844152761944,-0.3363907605584901,-2.2051335133876346,-1.1148281063664964,0.0020075581785328209,-0.27152516782878872,0.85630030659514556,0.54320434488599134,0.23868715813263983,0.34267781168065453,1.3681522294355173,0.28099428957092026,-1.1165485003139248,-0.23278405772251143,-0.19550070558021226,-0.48361071710219999,-0.31451291753451038,0.045874496650965949,-0.28383740535046742,0.78983514574527913,2.3198236402356063,-2.6508877410660339,-2.0728032287916767,0.26946491747598522,-0.24779742154135659,0.35309591249464534,0.5827955415002245,1.5893702359225017,-0.19982923125052529,0.018187180210521018,-0.38192012803116715,1.1338816382740506,-0.1862338808671378,-0.09382949788934114,0.43416806948934178,-1.2244758758414711,0.44407462175674722,0.47466401033580052,-1.1040281293370402,1.4048042485628947,-0.60164419451317508,-1.1220472368090189,-1.3027939904590313,1.3904947473487612,-1.6625887935197654,-0.90391210266714506,-1.9158483622013436,1.2359472353409964,0.70041924796803512,-1.0777351290111898,-0.43372252017464441,1.3452429578815512,0.66303875065782414,-0.59266883337044673,-1.0523522753785801,-1.4196256391157569,-0.58339388047695928,0.087079794538146071,-0.97359480826288114,-0.33880992212527616,1.4866060248394557,-0.67218457694771383,0.43387727925374586,0.56441203608418433,0.40444669201928329,-0.63843746286941272,0.88011543120143021,-0.086959154534462221,-0.38899780236930581,-0.38338058583388462,-1.1546575648721205,-0.41087610227322585,0.50391721675259249,-1.7389637043708599,0.51956335702063106,1.1856692341962114,0.70166355991644225,-1.0337225989430414,-1.07209103068025,0.69208652575658069,-2.2632354174827061,-1.2968025291399912,0.74087891844331188,-0.18109023173755745,-0.095532967595022708,-1.9426394405762168,-1.0180894891642398,0.075717831290268156,1.4346552225171514,3.3347345078353783,1.706317578883308,-0.28934486665654524,0.76342294825244139,1.5427802454865953,0.12998682900678099,-0.71181882391716556,-0.62620083907714941,-1.1553538139055197,-0.40429271568447972,-1.248759609972415,0.58410282482182874,-0.20239402387200042,-1.1132391271671191,-0.95023482985208196,0.72195056337254115,1.0605669864620297,-0.86215508937403251,1.9075966565065432,1.2050203884114628,0.51484739829706594,-0.42153018253395708,-1.472375887070102,-0.36187789901499762,-0.050009761298264982,-0.040165370087077414,1.5132052631885646,0.11949988597158544,-0.60664998870261455,2.0785976529006565,-0.23648826314894017,-0.78367504926573084,-0.89401988399787491,-1.4398321004962025,0.35861464399361132,0.87228854115229093,0.26841780133456916,-1.3201682704420019,1.157004846941639,0.50509878035094002,0.12569768491188243,-0.5183551648906517,-1.001169346975479,-0.69352753995367822,0.12564491713825024,0.37149251221330692,0.39151512067384597,-1.6180636991232908,0.39907918076640908,2.494705642517832,-1.0355829198678388,0.39417615950693263,0.95430536724168746,0.10299098222256302,-0.91153834825121771,2.0556688323784367,-0.318751247020164,-0.030908918819790653,-0.11265992974912972,0.59384627881380359,-0.81409431588214576,0.61022448172034371,1.5740189995924001,-2.3206213459891827,-2.0864144131111604,-1.1312830092675248,1.1696042312455839,-0.84207720394375141,-0.6667273955687284,1.2971363531965567,1.0338169657206813,-0.87847554149854556,1.4146647785331996,0.65111865267356739,0.48092356524361385,0.7440774176012156,-2.0437082832091562,0.61705778828527447,-0.29583058780720278,-0.66830997021020977,0.42174310110682944,0.12242742327817335,0.089747745556892647,-0.7460816598003096,-0.073118107054369261,-1.0189236019862049,-1.4575461138167585,1.869844888505662,0.2559439299833236,-0.25907957346185523,1.8323265453549895,-2.6718952021634435,-1.3324816871715761,-0.053514063727384618,0.78574632365897501,-0.92635297741741307,-0.1834893704521279,-2.0541160731137911,-1.1348490803061653,1.0814799124098478,-0.88008768422962658,0.94731711158801035,0.35765597752329725,-1.3506657498777905,-0.043456590894600203,-0.56687366788461802,0.14963087290182117,-0.80996515737483676,-0.24329754916859808,0.065600502260105831,1.0040399336939998,-0.055075574694554548,-0.3699146029658929,-0.57576016043076095,0.18771097357040525,-0.89538530871421174,-0.049490511286373308,-0.12022875686307341,-1.8666145264089176,1.3855044215145147,-0.48817979169767833,-1.070375313648251,0.16139333411616652,-0.19938167044878924,-0.24385181276159207,0.75203145074442679,0.18013494227968957,2.0732860002509352,-0.86399723762287073,-1.7114287133798334,-1.2179156810456881,0.34663270011848524,0.56347703294449014,-0.97503325438990907,-0.84229881981070931,0.57589389624792764,0.60326845547201458,0.48295243246056013,1.1214731927796413,0.27861751447542854,-0.86870859614037543,-0.33588848310096892,-1.5891036584942237,-1.6534650027840612,1.4207957057146299,0.23351907813722078,-0.39590887487895393,-0.06569326963818449,1.1606164633886147,-0.18427334912444582,-0.45007449461401944,-0.4317842072431462,2.2344793441030846,1.1238124295133112,0.94140706537540808,-0.42489589615261025,0.40342028992756929,0.25422261797081924,0.77457863124432946,1.0851242766505278,0.45291811269660104,-0.62951374660894177,1.0570394862218537,-0.48664018673163223,-0.51985836612943814,1.730223938838767,0.16393351449301607,1.2357926152843923,-1.15446256416018,-0.64497749119866365,2.7131685668800412,-1.1285936406537556,0.086834432970256642,-0.35109623131442502,-0.26694386219649208,-0.3902487687878497,-0.41537871674498761,-0.92557643282846958,-1.2572775125317726,-0.52286186943039936,-1.1099994419294184,1.8292522155624786,0.34926573795493038,-0.78033349077632297,-1.2734565086530787,-0.1614937922091759,0.75197030926589326,-0.46111609331872283,1.9343862527443796,2.3007402711282618,0.59230963626982847,0.89841583206830455,0.64281944859983764,0.19227076048785746,-0.88488455040351333,-1.617934698413187,0.76060342839631156,1.7673156981377243,-1.4611299663747213,0.35585636557371536,-0.042968650822629906,-0.29751028361929455,-0.20147475510885943,-1.3009877337827493,-0.031859682071409733,1.8909046417073141,-0.93790431545087993,1.5536605476900718,2.6001154216245217,1.2378201574126926,0.21317075570608485,2.0414123941062785,0.68517850687402315,0.90342860002617165,2.0441813488006404,3.1273278384445478,-0.26324719960348775,-0.87871011416725819,-1.0380683564454127,2.1241984082619449,1.5286769992530371,0.93698541347880138,-0.022137110454784083,-0.26884371838676324,0.89091700298255661,0.12328110664290626,0.35257558028010333,0.91086107062915789,1.8487338838546827,-0.64926230606141977,0.13614883791131405,0.16070962008706374,0.075074120201421957,-0.49207329480002537,-0.85845676895738565,1.7127247299401207,0.78312183791006396,-0.35795340752608484,-0.9708616576491339,-1.5762742101130491,0.27891153917153133,0.37996266150578112,1.2441453946554784,0.24672049089571454,1.3902155310256443,-2.1641920965904951,0.60199143719411197,-1.3146446218896646,2.6241827225229444,0.6127798877473456,0.36768645646561521,0.61917733523826002,-1.0064560481303984,-0.4529777935103057,1.3016234342483446,-0.66332741966431608,-0.08690155567729696,1.2237405752032757,-0.12724529456903166,0.17575835580261745,-0.77963024720128349,-0.7324445995031017,0.25848368206931133,-0.26819894124551152,-1.3998897953957365,0.14356464263462279,0.89428547230560052,1.8079972195461578,-0.72356095101891016,0.0081658731504666987,-0.75020117257103347,-0.5763931036421106,-0.11354672985404524,-0.10513120937013007,0.47485880470530645,0.22997021060161421,0.94637288720194546,-1.7370338281852202,0.11081196129391818,-0.22223844688321703,0.29912895841271242,-0.5159627363034468,0.89485661477574641,0.047083841872561309,-0.021101166972363344,1.2787748818332441,-1.1379652504809754,0.54149169717162404,-1.7335064319244595,-0.28768995001046072,1.1125048975688752,-0.17689055056651376,-1.8088536852934023,0.55491820446884521,-0.30155193334795566,-0.42491442486167458,-0.54809812398169289,1.371552054929386,-1.5103686579003495,-0.6375906109583136,-0.2851276042473645,0.08025805461505596,1.850149180994924,-2.1929760304022117,0.18283051263277064,-1.0941729220830367,-0.63568288953011542,-1.7813846662718686,-0.60196446056577047,0.49785470182400843,-0.62282112157027747,-0.87879283825993326,1.4523458024535594,-0.37560693151489838,0.22440222134489549,0.66923995739713049,-1.3260592228057362,-0.24549177565291525,1.0331625188498863,-0.24902704910268633,1.9777389077777843,0.27420033808815286,0.090028658983386536,1.5054001014531864,-1.592758646707843,-0.48387240291596434,0.38908735817223394,0.65919000591475219,1.4166759083029743,-0.30222106242435187,-0.75199984923793284,-0.22955959589659769,-0.69916136546416874,1.1341252891340519,0.79465665616781733,-0.64990700307166205,-0.38572262129612217,-0.99900353068967962,-1.2737530739215128,-0.52211290607555116,-1.6639594784843601,0.94764963238724376,-0.81521251439942644,0.50892128654312019,-0.50029896538670016,-0.34754820519380314,0.28601023038814327,-1.1853851463800025,-0.62562327412675411,0.9706679397977549,1.0739840006210812,2.3012755686729225,-1.2597332150745695,-1.590041736421004,-1.3081459843129284,0.8780695678930015,0.84666923195785759,-0.98522911838621918,-0.83370113151116065,-1.5690854920232127,-1.5323259928815556,-0.32874973721826167,0.22949993975771485,-0.47367799475389799,0.10106100382128543,1.402186526730874,1.1298080912361985,-0.94954802999885657,0.25733773263621373,1.07772875917168,0.12526487317711421,0.032389359492991911,-1.292035111436538,1.0453641718000724,-0.012053128852709375,-0.34811181781275263,0.88059087067756614,1.5119069610414133,0.024419547092543438,0.73602443830526243,1.1279536436450242,-0.86301829074929548,-0.48152390507757314,-1.027202657145428,0.44912535233091366,0.1361588062650487,1.2717055148444156,0.41999157997249237,-0.30627275518627167,-0.31206891621453342,0.85390307472474636,-1.6695310875641443,-0.57263781219852361,0.74995606717673879,-0.69965828210015246,-0.69863645476861669,-1.2405090655229012,0.26048742650292517,-0.13777308597347818,1.544432705333658,0.85495832335124367,0.70851214764154891,0.28724771605980448,0.58364878115548469,0.44520005928238271,0.50792065702535671,-0.82533275724083233,-0.43648378750494216,1.3765307467301415,1.7916082019690922,1.2088834680268372,-0.77229006883175433,0.43950023712547526,-1.5352509300333439,-0.024338313774320632,-0.66459432734974111,0.21338736575564127,-2.0066072298825679,-0.73552381577249759,0.20935390363850426,-1.0846347822861444,1.7736064673973695,-1.2457423048524578,-0.52725840855127104,1.2596149755669959,0.89045258819398487,-1.4454029628386256,-0.066966418790637292,-1.2709475523672003,-0.49033781688289774,-0.36791445393346006,-1.1059071950518489,0.60232807865546689,-1.5838929605036312,-0.51424297537865449,0.41102581778491587,0.77186963388339846,0.47151292843153075,-1.1013923921790985,-2.0935642459290067,0.78905755329593674,0.37864606281100649,-0.069390607528399872,0.58292096961084283,-1.9542248211615776,-1.1125587332646758,-1.0318576723576292,-0.62594915784854332,-0.94430585158385194,-0.54079475958035794,0.391366783719587,0.27450833890949183,1.9511824304321164,0.7537547944675288,1.620371474676044,-0.33584872119824444,1.462281850599517,0.2424344325645473,0.73027229713934494,0.213540357235145,-0.74887463697984835,0.45363288404088337,-1.1348282121696847,0.11109835557773014,0.58555459327265813,-0.28344782016630515,2.1439233550410122,0.80056491549244102,1.8018398632779609,-0.1252159550862329,-0.31269924533110083,1.5371742765092129,0.71597609044833344,-1.4715970476494871,0.33291699714825035,3.2500828859355377,0.94333162747712751,0.15561981006284265,-0.10646652838880766,1.5323119339577489,0.71505076832594006,0.39183541446870301,1.5778444098471109,-0.5888626292205319,0.27850851235412755,-1.0608761381328438,-0.28679247154869536,-0.2280093918125094,0.50890554190103054,0.93109823451319107,0.70804023137473493,-1.2968266123936172,-0.15017204104576706,2.0914225111073521,-1.1002220884308032,1.1973295437532216,0.80412539140748085,-0.97454914407722282,-0.3274414040697593,0.06405713667461653,1.1992992942391256,-0.59161606276052481,0.55946981555618058,0.57721391071464567,0.28611566800491323,0.25110879648038664,-0.64353222768846874,-0.63927864494649811,0.012554652925407042,1.550977587195709,0.54768452573578852,-0.88010499571983691,0.070186627564294141,-0.43714429199327287,0.72324440865425998,0.9255802792059773,0.4328456831515205,1.4298521936980852,-0.81026770987849328,-0.35441321063387188,0.95966964683309641,-1.4526269469334854,-1.5755119374255413,-0.49294219359936386,1.203757046461889,0.68827142997415114,2.0233759660255441,-1.0983500642452302,0.48626470397371602,0.5090314417155577,-0.33636673938617756,-0.78927791396267299,-1.0761445571008705,0.44788975046571294,1.0736514853431036,3.3035693504576646,1.012027899590134,-1.8065252738925306,-1.0477814729496071,0.89315744969420929,-0.80802202754423258,2.1356315782853112,-0.36428682977199717,-0.26662474424807181,-0.019005543556988254,0.83734176848093989,-0.9027937297865406,-0.29607471113868822,-0.48376824642732708,-0.092654988925186949,0.53453197701640698,-0.76448130882819043,-1.0049196444495663,-0.20343622461310878,-0.00025815048039847308,-0.32089595675903598,2.2559172648948107,0.083247788816427026,-1.1351798161640982,-0.38844099845592406,1.8707785693240016,0.64944447393837079,0.4301866947458709,-0.42874856527499666,-0.4216765199645609,1.3885576934793957,0.33648297971023028,-0.21990736109398895,-0.35599322190893845,0.67441185580394725,0.21715530348729792,-1.5363571216075289,1.8820656820899331,0.52038755009270232,0.92383515320104093,0.74753600932372699,-1.118324585847297,-0.2631133127761317,-0.61698287659166751,0.18749148063260493,-1.325138560138938,-0.61053059339473803,-1.872639354280069,0.12085253085799062,1.1221425102683034,-0.64492342097924704,0.26088104199430273,-1.9986871007694333,1.2213478573493091,-0.19555414868135418,0.058160844637300931,-1.3105622954039267,1.7073421511936053,0.43610484958727119,-2.1381494085092343,0.11479191159106832,1.3888051384682012,1.5550725441347582,0.097313981751902479,0.69714496400783876,0.73380004055003711,-1.2863623059345382,-0.14847254839605076,-0.74216745424129338,-0.52758744493621701,-0.76879987572108843,1.1068420997373261,-0.069361438393301805,-0.0026774258517222984,0.87017229677929686,0.31069933081783885,1.4278828026853347,-1.0287609558026485,0.40967929524245128,-1.4480063707211377,-0.38301332558098916,1.5232196456282963,-0.85076420192940161,0.91643512493219959,-0.28543142708646524,1.4292632038445316,0.6690012916446807,1.2940908601001355,-1.0799940299532937,1.5707208324800763,-0.14325437032020247,-0.3369111072244737,-0.048555563720682669,-2.7584609085134559,-0.169939841570733,0.29465295361420524,0.045562032422932087,0.63544796831863493,0.44727437559683142,-0.71178351510066529,-0.94735523047641379,-0.85494496344041171,0.74440389607860591,0.23450938390443873,-0.30977913286500247,-0.40755650320937842,0.90327654533009649,-2.2918649217062663,-0.79129584766439753,-1.365330327232062,0.67477573016159531,0.69039923699567873,0.1595967480286265,-0.64598100378740286,-2.1901008052011761,-2.8448745721966584,-1.128718773790115,1.2931190102279566,-1.0725663003751673,-1.3086484462454722,1.3382549564788937,-1.35739431833232,-0.019897182249723776,-0.22181178429464982,-0.48585660912250955,-0.069651746587844204,1.058946037233397,-0.739997543388621,-2.7275347743140168,0.61605526584913084,-0.19493694079196308,-0.20859779896323635,-0.11006443494517297,-2.1133071054984978,-0.84634527329705556,-0.70234587086960665,0.20294140436434471,-2.0113569035448196,-0.50514355175537773,0.24835423790087949,0.0024571553680368149,0.31509898970196265,0.30510081416153012,-1.4177530603036759,-0.3216717512214971,1.1989944238959609,1.6972213513994843,-1.0594688722236949,-0.2554717046794025,0.20483664254747594,-0.087055470425326395,0.34235934724711298,1.821252440300839,-0.015161984104241789,-1.2559528292805848,-0.81971109023555022,0.75874318826110865,-1.1857746556203173,0.60691243291231156,-1.8317042268608075,0.26454928832676206,1.0572346849163257,0.54607502868266178,-0.37212492051885826,-1.5952323982407102,-1.3315506522279223,1.0853426533107939,0.60320021339612151,1.2321724142633814,0.090040732441465404,3.1437896805528971,0.44581982779417156,-0.73229648636685085,-1.4748405419814883,-0.64599336438889832,1.7157246136127395,-0.059872839072085973,0.40036189698416003,-1.117487471981389,0.84996703890280123,-1.3566850539252937,0.007803820848757196,-0.065028979179202251,-0.078161817904765479,0.22410705939151063,0.91516227628377034,0.32473204427066776,0.78561204240290872,0.6997301586123692,0.76004339576100355,0.26217259024397321,-0.23483081461889793,0.41854932130240202,-1.4141231207992913,-0.58774428663640221,1.4583405330149541,-0.94259303060454613,0.46815832400466367,0.20620205139719736,1.3071623771120051,-0.69760221657343446,1.0719382899077972,-0.69123012914253912,0.82374466986604333,1.7754950241187162,0.53288314383604229,1.1346856118011788,0.61092002763591347,-0.17665346306021437,-0.68991689455234495,0.079421296378245354,0.66249006117601161,0.6319953711930596,0.06144106395276186,-0.74406742712491492,0.54360756465598281,-1.2713274432555148,-0.034293288872013029,-0.30696935046754242,-0.79442169847057986,-1.4231447104666592,0.80177209547565786,-0.71605322291621476,-0.28816016872694583,-0.01791522823051505,0.63868625388474864,-0.65721228749183624,1.4180544923390708,0.9511549670066437,-1.9370894210102367,0.50581849846380023,0.25074735759868527,-0.11290735423735376,0.59403660999136765,-1.861091652404522,-0.56725259179989262,-1.7422405770063369,1.0848775107188255,-0.54436854849567773,0.39312589639030737,-1.0438076703873751,0.63901045518997679,0.35303202436716591,-0.085831662468725561,-0.15468527801946821,2.2008125043319584,-0.45841946838343794,-0.44667408608041825,0.64969394650260248,0.8069970978072446,0.16458695303516716,0.44669437203475582,0.17182701640032158,-0.93584580271869311,-1.7483511866805392,0.21617786949984766,-0.2584088907269731,0.55350033779860031,-0.19750988379188725,0.23560779596182166,0.93269565680329125,-1.6617801822714808,0.077332423223434033,-0.73439860295671611,0.27966653467023167,-0.31972647863857007,-0.96334713136112571,-1.0619869135176738,0.63883340387241117,0.49232927592692799,0.41472755099101721,-1.2815302920965632,-0.17605909410328707,0.71419236601791958,-0.51022606555420003,-0.38947922257155992,-0.21012738087098395,-1.5966699572056295,0.090570186718618467,0.84987494808071495,-0.26309196815412472,0.65322526252785829,-0.045337365349158845,-0.022828332711285964,1.012888916904009,0.51573244286878284,0.67788149146264298,-0.58327573410309486,0.29860453087266481,-2.0884245040665461,-0.21645717322329583,1.5976713921430554,-0.64314177293327512,-1.0249575440543304,-0.1586812231382061,0.66712122278433361,-1.1400910510652824,-0.12713657426311936,0.14509884970615597,0.54683496588676272,-0.10246868428773995,-1.3135046329338542,-0.62186965028564123,1.0106039282265249,-0.6689605619073099,-0.13887630121573627,-1.4460108177410846,-1.6430993598827301,-0.88456477714356274,-1.7182516277954365,0.95754994764148171,1.6361087512059247,-0.40004489124424991,-0.46559138347983481,-1.3213499569251044,-1.4623677217487885,-0.83355249336714976,0.72716173962481423,1.3485567768740698,0.7866273951863606,-0.53840124002696066,-0.26907505454017799,-0.25827556389695772,-1.0632143888886565,-0.42513951987672355,2.1499319711300182,0.30246205433084816,0.86544846485987459,-0.94997735114438597,-0.037958346943843764,-1.7058785646853627,-1.697062593607247,-0.32706876652528549,-0.21202562728455923,0.5704968888393569,-1.0765707047719477,-1.0361995292862889,0.19854219056844857,-1.2078259087579479,-0.086780651208447232,0.10310178173487865,-0.31486282572314522,0.45087386782081401,0.31869419376103886,-1.745878536637347,0.74480520652052418,-0.55361738964653562,0.37770491020180713,1.3222844795005093,-1.8394778604807196,-1.6635692096903498,-0.016355303664882137,-2.1983286050560396,0.90548312412072285,-2.1644890564909161,1.0445288885100701,0.012997045794836423,1.1116684710360714,-2.5239140188325608,-1.172204203123733,0.84837730025219582,-0.89920650439594885,-2.6351750571981114,2.1869854338311923,2.1154052621090447,-1.0263713735752977,0.39422389614826209,1.7619249621003095,0.7770271910012897,3.4498680856184665,-0.80851462238220062,-1.1822974169096885,1.8019806422272651,0.69260666275179195,-0.036424117455320162,0.95774738978610419,-0.27170386938037078,0.12206960703009401,0.70421059778667694,-1.7347131106335412,-1.3172257971527594,-0.21488670658037939,-1.4156576874805373,-1.117422926006679,0.89955010077373865,-0.80584946734758278,-0.79108775770750828,-0.44958216881031232,1.1431217088503756,0.52618550707051948,0.25972350753947177,0.66667598126493133,-0.27677692913048962,-0.28311489575143145,1.151946433752425,-1.3313533102053063,-0.27348628870742059,1.0977792102376638,-0.69594868772181084,-1.4104965364436184,-3.1116947774014103,0.53392502406981468,1.6163816470357875,-1.4528881511845622,-0.57457321035405651,-0.44378286398848454,0.1036777651437191,-1.1343621688477248,-2.1834713078388273,-0.63901429473008009,-0.60247698419882056,0.011278364299406329,1.387512506676531,-1.0394824235139433,0.91037073626976783,0.55112240266955692,0.78460274790827644,-0.050287464870249772,-2.0246412885672749,-1.7199525275465151,-1.6471833773130742,1.1821351260188719,-0.3816566166250821,0.32315904783911609,0.25489747373445304,-0.27692957747078206,-1.6355205576095149,0.18751458422358264,-0.13434488657340843,-0.35444119839888583,-0.094653989954091869,-1.2981529828041138,0.092369679136146188,0.82726483635304204,0.0013144259077098495,-0.69702348333525266,-1.3623537444191856,-0.97060490121888532,0.63282830199518225,-1.8064163061490786,0.76520773998638925,1.0630906170995391,0.77047776845461502,0.076761446689136217,-0.98928942044852564,0.57525869097996507,0.85508642166598614,0.043825534385051025,0.053254140504068091,-0.63953610043862696,-0.7365215772534951,-0.12809518447356899,0.63720518989504848,-0.42668019110027056,-0.32740283410271115,-0.20169631390120019,-0.37014490510779402,-0.36260744446759174,-0.62078442658776023,0.10996349491869974,-1.0572459366908422,1.8164911643295529,-1.7721560750110903,-0.22665323204716706,1.2261094506257408,-0.35937505702532724,-0.62370842648463221,2.05022491937991,0.41121701725098003,1.8677349561013505,-0.0070531735910529273,-0.21973512046645799,0.066780749455851093,1.6418558194914101,-1.5058164949387274,0.19610069048339701,1.137922833233787,-1.1468803655420399,-1.7590889476182441,-1.7091629722823891,-0.14283383663900204,-0.5994962702362101,1.8548451151827365,0.38846568059451719,-1.420926696293499,-1.2737060041139625,0.83069172149248949,0.7616675570110798,0.70110441893313669,1.8845668608689294,1.0652377739187342,-2.9423367128495714,0.32786600940312316,0.91619811044675747,0.81687575214940988,-1.4036143949302144,0.59259096065838401,-0.93534686456510263,0.53349867997773015,-0.70362226708932796,0.53719566928938045,0.63603838816486435,-0.60414470856348224,0.11709487411490629,0.63750258290669426,1.2020069497505874,0.5841649975146852,0.27072233025878639,-0.26686206367465837,-1.4294800982755422,0.88830778385572962,0.42696730375744951,-0.35850132108851002,0.18616473891345836,1.9481532151756358,0.5962112884604468,2.394815353115411,-0.75296892975810814,1.501989045980882,0.86833275953655731,-0.30846255054965577,0.75595524552381288,-0.73648923355796847,0.85553365851688257,0.72605254708918909,1.5456385229966785,-2.5565299862802497,0.75240662897464616,0.71300269766034319,-0.33242816225017785,-0.81932070239816168,0.9759069875103733,0.89912001252552864,-1.4557902095597779,-1.3058388356674888,-0.9534985509261269,0.7338174581650968,1.2721151220932945,0.25746055462813139,-0.14532447676342702,-0.35885320222442824,0.56473587004665693,0.76649221512365118,-0.57029966806136845,-0.071694071731237499,0.30536168432553251,0.18472936914552454,2.8831653881780395,0.37106046171912116,-0.029555479357447144,0.3912572188890826,-0.81366482077198832,0.26749558092155556,-2.9187897048311355,1.0478694788117475,0.69737540128715902,1.0351685109488746,-0.83630522518311179,1.1706104270503954,-0.33443937791412248,-0.33644445142371343,-0.37666721016609395,-1.8919874027140873,-1.5410378008946388,2.0228908181424416,-0.63655984764618834,0.062626782790381433,1.1227423000439898,1.6759175202350274,-0.28054237063656601,0.39154888620950884,-0.86728862721931821,2.7432827450386821,-0.033464806321087254,1.2826131531111511,0.65033718351950809,0.81387095263418563,1.9315718898337189,-0.37390268180488223,-1.8872645398845469,0.070640560401687189,-1.0961144855214688,-0.24888452560677649,0.068914865272043421,0.98968341605059273,0.025491189806684276,-1.2438060375883249,0.34236885277450285,-0.30218093871213159,-1.9240554847767242,-1.1690285461067309,0.87106805146506916,0.24414957168590018,-1.2480224516484029,-1.3066911916553487,0.0013870670635874247,0.006475984273337715,-0.52166595371996816,1.804028074595893,0.39342089886756826,-0.96941482678966118,-0.95300615597633809,-0.22937290859131215,-1.3260969738975124,0.14126884427616493,-0.31440460598217074,-0.14822584748229128,0.68960845525923831,-2.2555247825438025,-0.75498139104744066,-1.0875775399796717,-0.50058368889562554,0.25321163208211794,-0.92424998176412543,0.33870611181742377,-0.84780072196042577,-0.50857426123936134,0.042124645670006323,-2.4691576566944149,0.80515237295940334,0.91613354805492098,1.354629961023766,0.41159884815292158,0.81683823535941302,0.30219578637477174,0.30643480999910883,-0.86590375218668136,-1.1670885156359943,0.97577301627848956,-0.34336408903476312,1.1171540476122248,0.12101154939060277,-0.41396052646430381,0.65696444928490627,-0.93529301785714569,-0.73413713973612349,1.3717603177422839,-0.22732161165523632,0.17386531419383533,-0.83784970260789804,-1.9454253316047552,-1.6287816073000312,0.4252396006519773,-1.8958863001603286,0.16629636044153204,0.9605166227073153,1.2307152489046984,1.2881742725124863,-0.35143678583971555,1.0644309538846009,-0.55073371914366409,2.4358794437474516,2.2430062677908329,-0.29741736099295618,0.24337747788603006,2.4654314554391465,0.27564187667628576,0.13478927328833909,-0.09260289595952409,1.4093047695583274,0.00020015786960171414,0.49623722446313745,0.39511903470627185,0.69846700958021768,0.028186459478016429,-0.28303506926435812,-0.23218011498223073,-1.0800689951868738,-0.17563103857325721,1.4949862063868791,0.13569625406049446,0.029190224549065603,0.34055471942011523,0.18700193301121795,-1.1393362983937714,1.0181279001259922,-0.90090982477703074,0.74776677787498225,0.49975932073927337,0.22941580296565217,-0.67843695259260073,-0.1337275586228483,-0.87960199162711517,-0.054893851615713904,0.092460280251011218,0.2935593659160301,1.2415116634094978,-1.1831226560315815,-1.5767837522320141,0.68008704891815785,0.21804476699694444,-0.60741320445874136,-0.44276227354106268,-0.56543133272704305,0.37066152350476284,0.11939040862911994,1.2290540605186731,-1.4948944767223822,0.43640623287752989,-0.82353823131328152,0.62964974150801678,0.7151030542679343,-0.39508146530476385,0.95142130946525738,-2.83123879162072,-1.5173056864120664,-0.7628918683054341,0.98858969204757174,-0.1400033897561126,-0.28338599561738365,-0.89870841815514613,-0.18247302270088289,0.56644716301735154,0.78697728021559832,-0.45807576750429441,1.0684907379472779,0.095177749382298046,1.8094262924041447,-1.4684388393886607,0.27095351638864762,0.5268249384414897,-1.6281599545321273,0.59336168541680623,0.25444872847876832,-1.7202931363471725,0.98919965675684063,0.57423312733444098,0.34160860116021041,-0.074651461354496559,0.10091047642793238,0.88558752154503351,-0.43434587295856752,1.6337399004935778,-0.78858373831091699,-1.1905409016559723,-0.62442481169791031,0.031726073194369056,0.95469684750131611,0.19988296191278779,0.5066822271775302,-0.29427380940825293,0.21300307131404903,-0.40633834841062394,-0.26903684111601389,-0.97481478950944866,1.4825766228615826,1.241424955253734,0.50170577451717757,-0.36137055367734516,-0.74257160596674066,1.8614177921942985,-0.74308386959448103,0.4281533386691862,-0.21753366333991941,-2.2863654436611105,0.78553176454305018,0.85919898154615415,1.091481594991087,-0.26725401596880144,1.0852487156672814,-0.34652821481224766,-0.45405114499850474,0.34548266891741269,0.75225822149818644,0.81761048988202767,0.48729771720272513,-1.3687085162370143,-0.81404081468070721,0.50543347119622029,1.8163691443049355,1.0621945320505639,-1.3397914395013797,0.55140501302415523,-0.20434767026363959,1.8103098863814815,0.34890035754859289,-0.54676503474508509,-1.5073619707880574,-0.22348033252260352,0.56308190165641536,-0.4307713526492683,-1.9952243220877772,2.588665316954657,-0.84109814694585949,2.1613605040142425,0.71695386718736298,2.3256938286926752,0.17655240386348564,0.91447785831273642,1.6920538636121034,0.98781451926723629,-0.41321556769773277,0.045825594832216071,-0.25265826557692972,-3.4427703244518382,-0.30809532685450391,-0.274183644344903,-2.7891424800103684,0.10780924250078698,-0.64222137510089417,0.83168672488056639,0.36358927675108665,0.74854836497383115,0.075375307173853129,-1.121468011263046,-1.8665303020793182,-1.1170594812484598,-0.48781422836514687,0.23523182082544375,0.0065860286943076867,1.0244469932752309,0.70045981224392662,1.7726767955428344,-1.5512878020307845,0.40111507859142648,-2.4678708893826502,2.1117790995167316,-0.79858888001910355,-1.6254430855192536,0.29518162930819036,0.21975847570894005,-0.59347452061702999,-1.7735338507384923,-0.75313832497101874,-0.52307730418516774,0.40751241468217975,0.015974212592736597,2.6093069345416939,0.80022617459735046,0.36125757964372956,-0.70555243844884163,-0.82777185767199779,0.16465576247991992,1.2648156682951117,-0.77810568628997812,-1.3912398799557979,-0.15953955727589761,1.111185667401055,-0.63555081033854621,0.68660155297765357,-1.5407786076350942,-1.3052916931248875,-0.41130291855905837,0.49607444127386546,-1.5551120811196526,1.0723128093899361,1.3092568595076373,-1.2546917499975825,-2.100405579153664,-0.27692202291830564,-1.4266732388357994,1.3794897516136189,-0.86201736072532065,-0.020126427904676232,1.4850027618108026,-0.57379448781545705,1.9713043130539931,1.8634225985757182,-0.81173684224646092,1.2181205273035063,-0.74814907959496513,-0.53206329556749787,1.2075138489690513,0.4653744560902035,1.0436308224827082,1.6756150452537188,0.39718493662751675,-0.68756604836837121,0.36065404390171907,2.0263030133316344,0.23290767714920974,-0.73175463546417807,-0.46274923020209774,-0.3957323582660261,-0.38074842405051829,0.43652293813832527,-0.7112160278682127,0.14881673907157003,-1.2707184037929582,-1.5701064887095264,1.8231426469138268,-0.50705264967593133,1.1827795039623483,0.58135492902580599,0.3388778384423442,1.1892220518572372,0.7105311336113892,0.86197915243738044,-0.17739491577647934,0.81239097999427212,0.46325199213883184,-0.28553239680677661,-0.15515857777993736,0.093613226798378871,0.49753082326320969,-1.1129339979002748,0.49568278268163596,0.3569126800213302,0.12470234167112991,-2.0914805663582428,0.72542283543733543,0.091276092088043506,0.38453527811815369,-0.0063613670828431201,0.17278243049304545,0.1213101387007671,-0.97113507126842091,-0.018282085377892027,-1.2584663584175679,-0.058951004769379797,-0.87690037675980481,1.3244104720050884,-0.26412664645749551,-0.87535053013081066,-0.83097936222401669,0.11243928115310259,-0.45227778909366645,-0.32187594990380958,-0.90229867167456523,0.59276322772560797,-0.76936332805116692,0.57485334992551418,0.85820795390195004,0.71449271715318763,-0.13713502575334763,-0.34112248161285574,1.5309798726282606,-0.4333324200691433,-0.15244469270238875,1.1797841943034639,0.33267013882983321,-0.72883164693425273,0.32337803086255945,1.045919329767069,0.22156376246010667,-0.13508595131856699,-0.44205491011530246,-1.04873991388967,0.17537455551018402,1.6471888425065502,-0.78707457501398792,-1.2906563364184549,1.9114450976029054,0.22990603733523557,-1.253223917026014,-0.91869953034712504,-0.74207139543229217,-0.23461902074691246,-0.17476979810124021,-0.7188601737402881,-0.75213107546020908,0.06302862940115217,-0.47740429156384484,0.29078290070744567,1.4988524627686948,1.2931704800434087,1.1853940779470784,0.73091607365246358,0.51184785501032437,-0.098306019892885982,-0.30425353657210752,0.36028645984326246,1.4594432413802032,-0.13259384885439129,0.18416635452276028,1.057911828695389,-1.1108373637075188,-0.84920490413851701,0.13728171275650075,-0.28473326386536263,1.1668190562587519,1.2905350042465698,0.47198088369439817,-0.66650645286936949,0.27679829039263987,-1.4160949850509228,0.41110677091801245,0.50959228036210624,0.082420394917246856,0.85389742952400227,-1.470310073395992,0.46533454526815682,-0.28155896080452913,0.84786831298812693,0.037929040500805832,-0.19287365152598399,0.13334395427138415,-1.6157556188903834,-0.62718976778713398,-0.30471691118965449,0.099066724243639506,-0.21977312059875834,0.26972164478105881,-0.8737679675677088,-0.39787628311429635,1.0384427392409248,-0.61340068351215182,1.1448981470026685,0.1403603321992731,-0.2248799953357451,0.078033329052767234,1.609486032906196,-1.0155934300920535,-0.30045453796735672,-0.376885006849696,0.78669815175337388,-0.6966966061587736,-0.70844109314900683,-0.044721687131505226,-0.33032471993141777,-0.10693376311004711,0.34581845894410224,0.10460447314845227,0.66803136045275546,1.3120995203493153,1.3874975097226816,0.63611170843389542,0.82979136028753953,0.39509561532556065,-0.7069853995167471,0.25759301810448687,1.067117916739307,0.53462750352156319,0.05200888975802085,2.1265058713575593,-1.582632841312563,0.76733619300683975,-1.053898711807048,0.24511272652758845,0.47945176680660639,0.36392026897242918,-1.2842999132629003,-0.40569508417761757,0.89137645833078161,-1.9700306525605387,-0.15986736963767056,0.82713246580250588,-1.1247644145714906,1.0477223463728502,-0.39033371353120422,0.43821084135534438,-0.0091929958759088722,-0.50569728456827623,2.378851547297439,-1.8017628552370883,-0.65998455754947627,-1.2321863052865578,-0.10215609250793022,0.41083141012193131,-0.91812743085629822,1.7335796248176509,0.44677670117942875,1.777965230461876,-0.89122504351658549,-0.14564478501593325,-0.36516189746356942,1.7312091067491426,0.19851892264330279,-0.33234072473871173,0.54968821727112804,0.5905703191784647,0.79061725533715432,1.6013182406892701,-1.0136126042191462,0.033266175687608736,-1.8461266747200908,0.015342365626050184,1.0523756561856672,-0.68794533988761875,-0.60140114185152671,-0.02697618286945316,-0.40758786338164388,-1.3074965925505837,-0.17208000957121686,-2.400320139596289,-1.9856290694625085,-0.0022185502249924805,0.77236041038584968,0.45353759250420278,-1.2758299121094621,0.037632195974000443,1.3905583234201215,-1.4096096618410989,-0.88945143029561291,-1.2442782731967856,-1.332334607828195,-0.99187698033350025,0.00064597180894353646,-1.5570248143785357,1.9158849278865311,0.7959693447715992,0.65492609910982402,-0.76093510038717571,0.14225945727595277,1.3428532788213381,-0.32260544232929556,-0.79892522662950238,1.0837879564665318,-0.55814043763344923,1.9701394193725239,-1.4229187854231622,0.39336898453602231,0.28235899315282037,-0.72184086365796807,0.55481429047317743,-0.62763564233004676,-1.364918780248314,-0.81183521700301475,1.7333973034673889,-0.63242211573306184,0.89847570583096281,2.3428307955732648,-1.5953402728894843,-0.091814922942739102,0.40944317844474476,0.1938480107287778,0.2688694136390759,-1.9992623638400919,0.18998749947805058,0.9180319124313373,0.30819110989954496,-1.327331624917258,-0.54578551626672078,1.3890196279447113,-0.43855766269749502,0.18020276710094732,1.4557415404649954,-0.7917634944937687,-0.33257647733952839,0.28242446611875999,0.80770963821957809,-1.7298386891128834,-0.58976855671930073,0.23517178302962113,-1.5091503965008872,0.13062576177613786,-0.38206628450036989,-0.14790085880083034,-0.69194743062560204,0.55068040009491726,-1.9695548021494804,1.4268838582051966,2.6305922202791097,-1.5391023189012873,-1.5675785872805517,1.3578911258474176,1.6818505319552339,0.098010942523803601,-1.4003518103877306,0.47442449523860764,-1.4288268822755061,0.32470015497731741,1.4423058161275795,-0.80003170153538983,-1.4770692280365869,-0.19803359157797695,-1.3922025260003708,-0.11048186870861737,-1.1551339332964907,0.31866151452521985,1.1067347396163874,-0.97472404009195512,-1.2342698616042898,-1.9243142997161344,-0.016322819446645678,-0.58664597321691248,0.36689164944015029,0.31796667135364781,-1.1581589317670471,0.11134758105371723,-0.44629628113285447,-0.59751384739116498,0.84233114658261965,0.35562538675154592,0.47332019955358906,0.31771650343595698,0.91424832508120102,0.36059027029060159,0.67668027483239335,-1.2976289331375628,2.0669169175386406,2.0310700609444345,-1.8505977416952293,-0.65418655593293606,0.46126685218034585,-0.16451906460971172,1.6588588940101261,0.7001784498153224,0.47678654643316776,-0.2699770318941746,-1.8217870610380575,-0.11282639633481226,2.0149132917494397,-0.034708386587900097,-0.6316315625378558,-0.44384429355274885,0.031391218805669745,-0.27546666719433699,-0.033361757976320905,0.42897904945569271,-1.2134544376777989,0.79720037874341765,-0.43537533031466746,-0.52276198599897661,1.5597204846948949,-1.2861624562577634,0.85097096573303876,1.3262097444157563,1.1248248980407156,-0.66164571607501488,-1.583314599061042,1.0764490745473023,0.8753246199363075,0.62955449443295808,0.66202694906645543,0.42034865166605462,-0.47269040736185491,-0.41221877622971559,-1.0024294533883873,1.4369515387668776,0.40529215485081838,0.0088043040847805461,-0.20891034963337046,1.7795041862894105,0.96577991422584775,1.3807855289533366,0.0052070269365134605,1.7399581497539707,0.26943113214611059,0.047034744966470185,-0.61518016733547753,0.33102683823443069,-1.5618892914892246,-0.0036224189729641087,-0.49072421312477565,0.82395939746094982,1.5421621696326517,0.99114163494877616,1.5078300914704497,0.87369517035715061,-1.2748092830301192,-0.27243935548406584,-1.1315892892901851,2.1210241229241942,1.4932079486129224,-0.051315389472836745,-1.062857431650414,-0.30771197777001802,1.2334712134214332,0.2948900640939256,-0.68233933414476799,1.4037250823848995,-0.55247566890219169,-1.2406986284832042,-0.17655963344726228,-0.38939811802463287,0.15560828272304111,1.1133651577027861,1.018526122347774,-2.0164194086463012,0.083515970772407244,-0.33383814051414618,1.3381122387339375,-0.37144320862362962,1.8496290740348709,-0.44375473175742003,0.018671066988145146,0.38490173456860538,0.36459687827073439,-0.32369415057534373,0.27997499141618976,-0.95830488447802109,-0.0022388749710932337,-1.1280117737661859,1.3938023605570897,-0.3012984424687527,-0.0088825851241279546,1.2029490589023994,-1.1627906779903696,-1.5243124659639791,1.5270067318656539,-0.47370864690173581,-0.17507330932955298,-0.00026515321291392663,-1.6298860933627133,-0.27845704393902065,0.70478632228964966,1.2784619872269372,-0.54588473160677164,0.10288561998890437,0.43677179539450384,-0.78990798110755456,-0.22892944740710303,0.29165398944230059,-0.45069310151012648,0.20067179971392718,-0.82341309355445946,0.68843588940488543,1.6242777958336361,0.90412164756016056,0.21764557604584395,-1.3715802244350206,1.0293382504060831,-0.62560912402149771,-0.46403765331850472,-1.1720212125370468,-0.84665687758662111,0.77960891717468317,-0.20352400602703627,-0.68065122101861064,1.0575693189436139,0.084162457004862828,0.12308697921310423,-0.99074068196328302,0.074346587181043339,-0.0043519720889588689,0.86463842790654932,0.59851981317418512,-1.3066024795646436,-0.5370054020052748,1.1711245997852702,0.015322214597721796,1.6213224654801286,-0.59135024362986743,-0.82314964117206479,-1.1999292115356939,-0.94439767279930664,0.82385616953594198,0.1548152935412439,2.4166170222187118,-0.70075700575565869,0.30912077931739984,1.1696314198761348,0.40317721116463257,0.92239399018667212,-0.43040943823247785,-0.091203557573064656,0.95308413781578238,-0.30102525559860155,1.020678411281325,1.0196946561503129,1.6666845575610665,-0.21682590788480316,0.4151355762617791,-0.33120072707067544,0.25427221264498662,-1.997173624589033,-0.98677540124275098,-0.16107945602634899,0.90417050931631682,1.5285478502375518,-0.40738204388404653,0.16772134600705585,-0.65993401169250143,0.12277272849778635,-0.49307167089714765,-1.9957215305419052,1.4826377421730814,-0.17536405730376678,-0.0483298031559945,-0.083964084427452734,-0.17283031396068479,-1.1356964586526554,-0.57634929193615747,-2.6015391474154508,1.3221262699419656,0.46628229564650853,0.886294849636448,1.2332001310982292,0.48337689811496976,-0.50860181744496635,1.1090367138636354,0.72031913754657018,0.18365594783606437,0.99123836665253939,-0.53175145697783199,0.58586845565708501,-1.0909993284510617,0.7569692008169121,0.67207257816807831,1.1019326910143143,-0.015155247720824288,0.6220713391093009,-0.46911624902178051,-0.68001288733457432,2.3698453614818527,-0.93680566894757622,1.3732127049786849,1.6102796455119253,0.59317508544122499,0.72080075206772065,0.11232924279067516,1.5155399684868798,0.44185364832801993,1.1364127528695709,1.4813664915404945,1.1470157477690408,0.082458044437172806,-2.1492510268375504,-0.41732871011022377,0.54020658761782159,-0.99554299480193686,-1.2274488456395067,-2.1689432894377121,-0.55088080072671131,-0.21787683209240699,1.7910726887852091,2.9939753489437466,0.22253429272024497,-0.75231282835496727,1.0819163165809229,-0.029903401260420771,-1.4486240313821666,0.36438439025918706,-0.82272048694105282,-1.7904178280696217,0.11611369218189146,-0.68094341239292044,-0.348501811716246,0.87432743312385264,1.0964830688803988,-1.0230528434613306,-0.75798630358044694,-0.32953139688168881,-1.341189103544365,-0.10428787216782982,-0.56070653786815194,2.3991098915872686,-0.22392870339325574,-0.39067326730508267,0.60564853304960609,-0.31775536999427906,0.94230271885801309,0.28870653227050891,-0.020875885905834359,0.017052822836541175,-0.42642381019756498,-0.54905827354459702,-0.24336296349181544,1.1411351230819442,-1.0002731537917802,-0.67657765551739335,-0.071342019507421459,-0.44558847060203793,1.9057425615305288,0.40040913259065258,-0.63467748466287188,-0.32224205657236704,0.95764643278359607,0.37315813396731168,0.021402503866442688,1.81528634777706,-2.1892682609805698,-1.1285555595212313,0.059917143593308408,1.6169420222825286,-0.10155311322057817,-0.55291375771647477,1.0982583178832721,-0.77755868184880217,0.46571038492881345,0.71746203623063232,-0.35158669492608985,-0.11808664604591447,0.58930334575727361,-1.7268596476155127,-1.7373604072710089,0.13260491752375372,-0.50170784617587738,1.3182508718713541,-2.6949163057245697,-0.21198488886139571,-0.91031670837112344,2.1451491251890875,-0.91113505526769611,-0.39039900442836767,0.36908906378624201,-0.55875527343101505,-0.6163976125517564,0.81346389624297799,-1.9376357115438787,-0.29185482639814952,0.10644269746289826,0.90950556791748205,-1.0348382884032523,1.3364387344854081,-0.83810637988083547,0.32073168367160926,0.88339056134789518,0.65352822616311101,-1.1104101060872806,0.85333455511203404,-1.2829531063307456,-1.2066517020186112,-1.3888529326033847,0.27026317074335676,-0.94922014962799683,-1.2684731591147496,-1.2189306578993482,1.6306566227420873,0.79196057312512891,1.1645184953521359,0.45400690724626913,2.1640427079340143,0.34262628021238434,0.20129589872856346,-0.87243907424130052,-2.6447343383322659,-0.9225674741196157,-0.086163059016415605,0.28584648462863926,2.4334251641959814,-0.25103963167029281,-0.66075013657077486,-1.1883648442540073,-1.2103645397663527,-1.3500321928358532,-0.039727336821257571,0.24834254210257456,-0.56649788158413961,-0.28792918847640275,-1.1354076611234791,0.076497552771519275,2.592526784895921,-1.6078290519611886,1.156161860661221,1.2814187188412518,1.6669824703459351,0.65610346232186867,0.36432314703185648,-1.2747320193362102,0.10050729172318836,0.90011925405197024,0.3264215262332486,0.48659202436157123,1.1385400598174176,1.2613875281453975,0.15590489417029063,-1.3467659700726833,1.8270321773933982,-1.8027986000364267,0.42410911171492538,-1.798381414217755,0.58684177933586723,-0.084199247844743502,0.46755790135949271,-2.7814736476951079,-2.3597924978303388,1.0207758796389783,0.27076775092549377,-1.1305815018999044,-0.66215698688211744,1.7637481274367679,0.26559088342491455,1.0330261706723018,-2.5356241450413224,-0.91137141278803013,1.7349629008959597,-0.69875119186089751,0.31299633196523546,-0.36490947461479578,0.94491865235163597,0.1792709152703586,-0.22359669259704754,-1.5943757265154417,-1.8413874325496198,-1.1168228614780009,0.27788545347515514,0.42300213346834059,0.52944697406374053,0.78403075869632866,-0.40002013741343428,0.58577207155649691,-1.5155378157436044,-0.16369330303371621,-0.54925497042837035,0.41334739421710875,-1.0107757934302468,0.68580275429458359,-0.19008734422592349,-0.53916276980059297,0.26330601504405882,0.22334627474695232,-1.2061805128832257,-0.44940557857464969,-0.19006323430086769,-1.2779150897157214,0.74706375608213305,-0.0084588745134007957,-0.21407688704008571,2.1293677633282,-0.50759414158331873,0.11660326326986328,-0.21212936588736758,0.42985874022379317,-0.42379456415580513,-1.1343394341337347,0.3321460782967896,1.1994886940089138,0.80630238149127009,0.90718218100470549,-0.58300334633684414,-0.99415158772848011,0.86033437721384864,1.9842888415758808,-0.044086050582731968,-0.53526404184984855,0.7224429689111771,1.4141449588983463,-0.0065807624867910836,-0.71443221602446971,0.28772111398657441,0.14805111738470225,0.69836519665757879,0.59008655111516961,-0.074201957922071432,0.36252059552934041,-1.165448516849285,-0.58359271716088856,-0.90424517266110649,1.0095198928376954,3.155563262670674,0.32741034880995684,-1.7623480169717498,0.2471352404782502,0.40789524834093799,-0.19232495051075646,0.75830881646232928,0.21688613667873255,-0.45769862476820738,-1.2976182483825518,0.011463984858367689,0.4087958678628601,0.73420396973668534,-0.70765764326491409,-0.7833366219221688,-1.2275803334167432,-1.6332446306837964,-0.55949667349121712,-0.46038790577114458,-0.54016072229943857,1.9237053102418351,0.32957031274683729,0.10835064990041471,1.7425087714142851,-0.11976837577704626,1.1153785151733318,0.50539341699170637,0.78100493470723775,-1.0128080152268182,-1.5833419084794416,0.31316332108182338,-0.66705108941107105,-0.18579119846636191,-0.90912489434222588,0.25081637748065011,0.93125191741671365,0.76993790511659743,1.2443431994690177,1.3142305459857238,1.032593261136147,0.93492361245337063,-0.27700196863743487,0.28030736484164004,-0.68501483427876231,-0.71026966495592958,0.13580192615559816,-1.5324427098934963,1.0185035373978764
