1.4483097783119876,1.1658908680552742,0.97944542026240144,-1.2265495451628563,-0.64435647791929274,-0.90751102413015206,0.16300303509399577,-0.99271042826407108,-1.4439603728656925,-0.13778978527241814,0.65018653104695667,0.020803183400464546,-0.91599960244349043,1.4331749338274777,-0.30177123098875702,-0.45823541633382536,0.11923456949875223,-1.4546684055326582,-0.045531303883945273,0.066179546273757592,1.8282226182430008,0.38116643523440574,0.75790915575758155,-1.1796409933158081,0.67264174634265184,0.25301316555552428,0.79406566682033408,-1.0956110984044207,-2.307132657957236,-1.1708821840450399,0.93405931916635443,-0.19516075152561732,-1.2498127576144105,-0.26120577059870581,-0.082291093895859146,0.72203032636773856,1.4380750791318242,2.2601633357027708,0.090437967758421528,0.26050057672319021,-0.53287141559396944,0.76841049742718581,-0.50889497637429404,-0.34073018455637161,1.5037510613560245,0.0086165450418368168,1.1801378095927761,-0.35148291113655061,-1.8244562487593767,-0.76367414065484607,1.1227156666969325,-1.6767482939385014,1.5797773203276833,1.1043054479178129,-1.8407592188953115,0.13623411792443382,-0.4168775898681118,0.33280178432325358,-1.8411481108558032,0.9003563358204616,0.92435044279732403,-1.3183835186441473,-0.33781123317716044,-1.3432767934406173,-1.3404466978451877,0.12702896557463147,-0.43322059900457699,-0.96976946898375416,-0.24114557257530289,0.43861457781213681,0.79591342705683255,-0.11294186698976959,0.41816730191482943,-0.8244928262746456,0.10766266182733827,1.3544323682521728,-1.605229688988473,0.14520703133926638,1.0803661853404005,-1.3417112425201505,-1.1212380385421519,-1.0688566635825585,0.88703905505427427,1.5530198057698019,1.4213682321163683,1.125378432856327,0.34534306128990849,1.5196553729029052,-0.020383980243170507,-1.0746631009335845,-0.41150722231270226,-1.280362510237238,-0.11658220893633672,0.361419567775418,-0.36913457862111121,-0.10779761825408107,-0.093519349496419948,-1.0596290305581963,1.0195132521172312,1.0634445420484588,-0.075043384382136605,-1.3146008125347683,-0.74391498358691788,-1.0503431044096294,-1.6043718691036142,-0.82622103135560754,0.80870352229137021,-0.085174826091259273,0.86523057105127443,1.2913244351565032,-0.03859523020678593,0.49305237018542636,1.1583611900526545,-0.22326798243740342,-0.48698660930026455,0.13033103663528323,-0.37438358345678474,0.036394051008684078,1.4895946374511915,-0.84808783631291451,-0.65919243739939415,0.70650165197379466,-0.82788142146510291,2.0102587135121874,0.42257192313701752,-1.3792115884400269,-2.7875888937938758,-0.49539664262657718,-1.4347552693109362,1.7854629217892009,-1.3106362746760714,-0.95599309042121794,0.26589742352902124,0.74279768436594051,-0.95248513082437647,0.30061276352057842,0.61130879804729776,-0.0013064290092752303,-0.42748803298460275,0.19968850655847201,-1.327167447697519,-1.1530974010262549,-0.68951865755592434,-0.31766503409813224,0.51579550707075905,-0.96204455098015962,0.82530339692602828,1.4657498230481507,-0.45538239900309391,-2.6180318580317583,0.20624811617068112,-0.17160756604850044,0.15245330873145249,0.40107427649790572,1.2865605754244451,0.016749519835413992,0.38889438203707904,0.49304184347168689,0.68611411527863486,-1.052097021348233,0.87339522667498304,-0.006463818157076754,-0.88501318075460411,-2.5326474228080573,0.015906561738434188,-1.7436754589775525,-0.33991186786896532,-0.90693479168260138,-0.50259407335111805,-0.61169213556099578,-0.51758046129922552,-1.6833801334038667,0.4081468391857645,0.63695367801483382,-1.6837058446792559,1.3564290437706645,0.038087682405539287,-0.76181622751698885,0.3404943432106462,1.6349702384757017,0.68070546323875558,0.092388459383711985,-0.89006114577241846,-1.359008031076971,0.1063860517560186,0.83401326589592306,-0.5850819115680842,-0.016465727540289264,0.54336993221859653,-0.78395272142131067,1.4195944915470977,0.93944498271510724,0.32774178788528718,-0.70341035911155603,0.21142051855211808,-0.06209006615086364,1.2988139052511896,2.5352923624777324,1.1299911249027781,-1.169608737937321,0.85321273280626175,0.47737544018267941,1.4386877325141105,-0.40588151804724609,-0.37904021582871417,-1.0105576276007147,-0.96905664730650654,0.055525908426001198,-0.52756933418010921,0.8241932373543055,-0.61884686635589325,-0.50488233922981895,0.011471337649671905,-0.67524605473207922,0.043681029321803434,0.6610816584384448,0.46187418818035014,1.2128031535990615,1.1765041563590486,0.23673324705149332,-0.065559215597832524,-1.7000497897611491,0.33748418618557519,2.0131418501612823,-0.45199253590931193,0.1379261663603974,-0.22261278488297576,-1.5265950785903255,0.078444321031770195,-0.42933973112834561,-1.7982251682727415,-0.94639712210179239,0.33661385521931897,-0.72889768112963615,0.47574687257537196,-0.77096640940037842,0.77280421619892015,-0.5654979101017551,0.1647208163010899,0.76757139740863922,0.57303725512411541,0.59158133457806783,-0.5219856538701998,-1.2010455752548235,-1.1519959343665347,-1.9117446813637571,-0.40957742970661642,0.38540140897868624,-0.40803007559147786,1.3848886481825691,0.32592960754994221,1.184030430954178,0.35165334730052106,0.51706481679137728,0.67492262174899442,-0.01522652118130372,0.69205603995257214,1.4003487389002836,-0.82071207541031499,-0.20125342574764477,1.1679522673514362,-0.045390971490668647,1.5091772375282075,-1.7717657599518275,-0.93789673479051017,-0.40704462166425043,-0.029688651333390062,-1.3546164145187962,-1.902025820901585,1.0109892643455545,1.7676806390493918,0.24422007630780038,-0.74554478629951615,0.50449212376432129,-1.1095571251217329,-0.11164466924482989,-0.28849101835682911,-0.75398167602539168,-0.50676634496397699,-0.2553201551813446,-0.45373090283691919,0.052027963485581773,0.60182229522800079,1.0933211960632563,0.43758306198857838,0.78548842270312469,0.28809707925224581,-0.56833342895415651,-0.58713930712666718,0.75857819627985512,0.032788055142415999,0.5407330867323703,2.519127999531281,0.48025807564733547,0.24250220573863196,-0.067853115168552455,-0.62381693415406836,0.33368904912498565,0.028974820988482787,-1.0705631370818571,-0.1332860954756096,-0.3296886015840535,-0.85980421048789579,-0.50972236140561777,-0.33924928295585677,0.38392768556074047,-1.8266524360922374,-1.1446135705135039,-1.2481533505885305,1.143881632475573,0.99373658778203,-0.84326973328248622,0.10232274006158255,-0.46145267465627443,-1.679800484499453,-1.7636287850535379,-1.5350141384004663,-0.50625450750741208,1.6220441324745964,1.5030397259867954,0.3480435845061684,-0.10809880189358259,-1.8981389860293054,-0.91402930381708947,1.6659168486584401,0.31677461833405723,0.46163691604194257,-0.50670203335800079,0.15572410452312693,-0.85018694231051595,0.74871867486706145,-0.39353648211990899,-0.23681877886327141,-0.14357493097097906,-0.82975838888747888,0.65027976500229401,1.7777467592170482,1.7830121689703589,0.79532473100367196,-1.5980873033268514,-0.5658377058831211,0.49035789168326027,0.89257515227174378,1.086984743923624,-0.076378124355257843,-0.71235542024406628,1.9932583699546311,-1.3498719673222017,-0.49776146728777898,0.061232156784131415,-0.18124568583214645,-0.76411694152473586,-0.94702597757524631,0.19511393711888811,0.52624094308949276,0.39115034769006579,1.0227172374482554,0.50042080896819485,-0.12007658893930319,0.090800846053966849,-1.2896908076833826,0.44474894170004298,0.035840307355345116,1.5009904374920093,0.19395906957840653,0.94343441525003691,0.526104136005209,0.10871747038131105,2.0523632484694798,0.55689177874510332,0.84726696629966802,-1.6815772577591794,-0.11845686110527766,1.5369202157155344,0.86985228103737411,-0.12056365094135421,0.66615060516905944,0.73366712639726739,0.45398891050911627,-0.6357136033989661,0.36960402727655584,1.1856257180950813,0.1272677188099138,-1.8064080683318657,0.063608846242479672,-0.19186722020520594,-0.26965605688911248,-0.11745616295411895,1.8781754617913242,0.8409936579592161,-0.078631041628546811,0.57407973762241693,0.2265934486585279,0.48114179288638542,0.62048242325993852,-1.8659992951046078,-1.2380752530083567,-0.27207978077780931,-0.86068697554277462,0.071698999582312503,-1.1640538289618214,-0.026416397406271913,0.76417836466294342,1.5606983005447606,-1.2098049744779982,-0.49555386011946989,-0.01603458816083584,-0.73745577861006772,-0.53307945800929402,0.16024378451484672,-0.89465523813459524,0.90452421246327797,1.5970968457982553,1.9682700287571326,-1.1133569322828927,0.65862472235972291,1.7693498013660436,1.4480455399498922,-0.18416639380802086,0.97665301733623255,1.1105527717344315,-0.46469947358915736,-1.4512184314012961,0.39116758442298,1.0343518778203744,0.49192751979305183,-2.4482469167290337,-1.3316802192179189,1.740558130842671,0.13363216589629814,-0.13461079029308598,-0.64745791576228207,0.8976485141205407,0.35671033296174115,0.87485278018657331,0.30581376586486081,-0.43464809804961552,0.53909407707327972,1.5306630917527286,0.30607278734653093,-0.48911565063738766,1.115956774424625,0.78413950508090202,1.0698590969151158,2.2211210357253002,-1.7709657869246969,-1.2501964634805847,-0.13605979160586662,-1.078028664638258,-0.3717844261254955,0.18194448324373305,1.6102994394466259,2.119621000223654,-0.20716891868358553,-0.66407191864631843,0.21264109185895014,0.11099344444831363,-0.82520631440260916,0.076275902888886402,-0.98281663763413141,1.4008544475493505,0.66820802476951291,0.19220150719429291,-1.4042847113987069,-1.5838623252545438,-0.52767715734539233,1.4852357375289758,0.54685042565827824,1.396345644699595,0.72897610447788463,1.5749370650850689,0.85118649743566133,1.29429646217437,-1.5387446875919331,0.64815455325777793,0.47626076782564519,0.22839794769965133,-0.32729714162048873,0.57079642675385944,-1.6166618439589677,0.94957337356391047,-0.26210332344160386,-0.15570474245527038,0.31715105880869193,0.47098046691179174,1.2543806975617144,-0.71404529919465065,-0.89575225143114001,0.24027435796477287,1.4386483814432804,-0.41527222729994956,-0.30541754838097274,-0.52668599974727581,1.1138825437884321,-0.21911914222956067,1.6316197067072153,0.019652433028667756,-0.49712416104406576,0.10177419144344284,-0.16262070521670291
-1.3128239390139251,0.50195994116123976,-0.45455677668746586,0.83358424113364915,-0.34926584946279754,-1.06922660182621,-0.24240160454791168,0.82676363777611606,-0.78296607089887837,-1.4674560615858845,-0.49871364464391127,0.052925375917313541,0.43648557462189919,0.30929737655060491,-1.06564878265207,-0.062514068834689171,-0.68516237619135312,-1.4567990053186768,-1.2358779125305572,0.79601921688982991,0.93914482489836015,0.493691312323156,0.96655663659735203,0.1392356444868425,-0.99302605791338039,-0.83494095737071272,-0.23388320295224199,-0.97755987414460765,0.19542683692711657,-0.43945187692991927,-1.9603493379583956,-1.181228221085594,0.87339647270372822,0.38664902743669194,0.29600992406318138,-1.9282696303824767,0.37927683308993265,0.87035660113796098,1.1058410799910581,-1.7165450919716583,-0.076278808665665568,-1.9030462770078893,-1.4508973384325603,2.2400122657212753,0.67201895619614471,0.41446933403451136,-0.67268936659934953,0.22556301545216464,1.7256802138317078,-0.91948341006736989,0.23103583329731847,1.0595571702219135,0.98081520183473725,0.94713862504817226,-0.087959563990684483,-0.8482412128766964,0.60301133260640194,0.3089195040213103,-0.51609065911910368,0.77639487567391219,0.57285058131873534,0.29906768550035645,1.8726565528844643,-0.3992785246641854,-0.15745774993285683,1.049707633380363,0.16527769390111022,1.7461241420879821,0.17233605515869768,-1.3141370516022144,0.56529344538858739,0.15746026612312677,2.1662206127711743,1.1586584456862608,2.6400302033571728,0.77817311086500474,-0.42792871234972335,-1.5921565805992588,0.39633680039554897,-1.3551329663785376,0.39112535075188137,-0.66369338381208021,1.030770717265457,1.8143432786105169,0.49700543309878792,1.7213822046713811,-2.5234072948113404,1.6617979509955725,0.13720781200273569,-0.73623341723388092,-1.7304267420685253,0.12109054637017717,0.0032185004929355604,-0.81507179636074445,-0.69741410880308974,0.68616300837244504,-0.11023041644634261,-0.63618142183036885,-1.0120795986812916,-1.2429566924348536,-0.013074724228925423,0.84732215995633953,0.30872016396198487,1.5226409602634461,-0.6997482063874737,2.1615455647666404,-0.63026117845645269,0.64975112355663411,-0.90344570366956944,0.37145561572055275,1.8957600842936166,-0.39766337106657057,0.30230717940758778,0.59905592077487202,-0.77650833312056178,-1.2774600002910097,0.043220060631178926,-0.16196448905297989,0.15320816562636527,0.62991159335588753,-0.4671201252710801,0.52674534701787112,0.33378349858114126,1.219125199335682,-0.27929622063223791,-0.75025087009914704,-0.10342529472460674,-1.2297133914582654,-1.9689332083348512,-1.1006506056714456,0.017069939052798008,1.3716606906992668,-0.45425323022469327,-0.10361632577663915,-1.0641748614114739,-0.25260046013649973,0.98551884231853648,0.12297018265347157,0.4826477585336984,-1.9604308513555744,-0.67014162183957782,0.44350460092689148,0.46723806763713821,-1.6455550087034123,-0.53913814766674462,0.96275785121261481,-0.30757314987042234,-0.31422993885105599,0.068257196380643537,-0.50808080724528082,2.417309910989156,1.5509052818851938,-0.83675233524225423,0.30663427441060515,-0.16299797198336047,0.1715520593791198,0.75281833501268802,1.8264622494669478,1.400610658919113,-0.16331575048104524,1.3406097698646053,0.066353140373362804,0.34751291667584727,-1.5282033079547261,0.66382208718163982,0.54041838524751529,-0.050499784432060331,1.5216393161074449,-0.54073020937652883,-1.167491078546786,-0.66847878803469929,0.49887138282587545,-0.52180299405052,0.33061060908820744,-0.19114464546287394,0.89328377156284888,-0.80823287381674835,-0.062330476474525852,1.0929654878146644,-1.0840220021432037,1.3623112288612571,0.098386922523492543,0.40100993654593831,-1.1036533565560545,1.1706682293808932,-0.16896249731899823,0.57520439423428782,0.58573050296493889,0.76134990968178429,0.85638110422244207,0.61455649915044208,-0.041412100693484263,0.12908504025144793,1.0001030510115403,0.29097425038298352,0.98997675318334921,-0.63564057773330029,0.62370852142122202,0.5568486740442532,-1.2293383184924249,-0.2062649490111009,-0.44638782266146787,0.61556688742548626,-0.81110162618497728,-0.33471650455800817,0.350654768580687,0.11207473696736711,0.90647965667193253,1.0202762358026891,-0.45824421452786529,-0.39945847749084168,-0.87617896579515098,-1.5190552645815112,0.063879264943803721,-0.13048661792391308,0.18599721062600291,0.42341783945329531,-0.71329637224246933,-0.42728903861409828,-0.023534493416819176,-2.1840368418117309,1.4796352598457831,-0.22352760872116731,-0.51681804446373036,2.312640220996482,-1.327592371491078,0.55364904431655659,0.30744297215076788,-0.74170920710262378,-0.22146789368826067,-0.34260529292033359,0.72085851648275012,-0.93074792561415864,-0.80921139912029616,-1.0371986477023611,-0.69558781037276318,-0.66734680383926659,-0.017181566407959127,0.36329145952749498,-0.42020524646940055,-1.5037349212181297,-0.42839596694946019,-2.5873055472109936,-0.44339575242340573,0.095864228787915604,-1.2916934841683649,-0.15428019458671488,-0.38501700881410322,0.97681351568743069,-2.65174503453698,-1.4050971589727383,0.50525371124953167,0.6896630203129972,0.58970043638811431,0.18102384361776042,-1.4394023607727446,0.98225341346078554,-1.3765288458270637,0.022296061137598498,2.2021875521350216,-0.014359153599844333,0.46394532679169337,-1.0756185254137689,0.03757901104708606,-0.34848709008021717,-1.1474407501279529,1.8768310706820872,-1.1554327336749628,-0.93199576721720512,-0.34155510013699131,-0.142877793600864,0.30463485253600664,-0.034158522528483615,0.84645319305330358,-0.72354974085609391,-0.95558044310141588,0.63436283355621992,0.25662636629719954,-0.12341319175625387,0.03875128852240059,1.926974433275493,-0.92173487464696935,-1.3050989240250939,-0.57332565661645785,0.57067655284516028,-1.3058270405975507,0.20919172914170434,0.37611460491325294,-0.26863196543933782,-0.90815394201667787,2.0151401839861287,0.16225902034395975,-0.7794415224263993,0.39138981069784079,-0.88649039059021517,-2.1512456374975626,2.790882596437307,-1.2704046238078894,0.37684596292657896,-0.055939826172491915,-0.060650175565710437,-0.10169466081601507,1.4012597593562379,-1.6691990689029459,-0.31636737395227554,-2.3723079521978585,-1.5445640029885372,-0.26246635175700533,0.11814504076521651,0.67886590452819939,0.1579544310857193,0.36070418601131821,0.22614368278703062,0.9953638009746083,-0.78520457528343846,-0.76619775471451546,-0.73256801709001895,-0.13059217721713326,-0.57229877977509958,-1.0015491131362653,-0.32240043645169153,-1.0646230220855635,-0.19350655141511217,0.77096137318551694,1.3111044672259362,-0.51097315525930465,-0.9512822935911126,-0.019992971300775854,0.87228623977329034,0.70631253191942567,0.91036388250902323,-0.50814996744014795,-0.09786424124722394,-1.1678102103094925,-1.5723924785913928,1.396251044076483,1.1497704061045304,-1.2686723678726697,-1.6391316175212705,0.27841599425784841,-0.50776093159015689,0.64184268206848361,0.39603319393144876,-0.76453409309596421,-0.5381937515122357,0.29340027658934803,0.53793129443579912,-0.28600543074252494,-0.00082046010583313768,0.1969452269947968,0.64267775078589229,1.5057382008647193,-0.12988510227817487,1.0045986287956841,0.55055145934026684,0.10747390631810194,-1.2227806293593526,-0.56545316453170302,-1.0320157174887132,1.4133736624844806,-0.10915399365915297,0.75460164072759373,-1.1818952327729113,0.53311820564903201,0.97820263381178274,-1.4862945565685346,-1.6629927344194271,0.095334673430917255,3.7844569133722228,0.63677636261586756,-1.1115262197926388,0.085740393589901043,0.0088340890040250978,-1.5052089413224703,1.6196953474315665,0.73819075274854962,1.9671272393723425,-0.7317223323425095,2.1665572811290605,-0.65469390201289146,1.1579198559233013,0.1949602358761689,0.49463419777191137,0.73642177026949751,1.164573804234694,-1.4940927346099131,-0.16453353819960315,0.2078267388441441,0.061534443484883988,-0.67200826962751381,2.5170150206756707,0.092921391093097619,0.42994315834547592,0.45078194962217033,0.61209369594305429,-0.2151664210909264,0.35784987284433933,-0.61714898687516029,0.021529576561347498,2.7455554491541729,-0.10894181414314001,0.35672656116343043,-1.5565505843242682,-1.4288974669931298,0.19549083483607249,1.2501702718308723,1.4674173342401671,1.2666960663875539,1.767667485867916,-1.5183992021819803,-1.4086886301232322,-1.5409345771239831,-0.56227507186124681,-1.769937915821711,0.29934580262503274,1.0939272751692937,-2.5341408864606678,1.2456618533788228,0.12825748737846149,0.88957210996879832,0.82436112721541355,0.23228207758450531,0.62323177730326906,1.515579905826598,0.16684272273369119,-0.95463118345985631,-0.42811030418184964,0.21121208281314896,1.2820723653593513,0.090209695532698336,0.67221533283536072,-0.10289331250811069,1.5747653308194216,-0.72344169418614734,0.027446326482754892,1.5520633903956493,-0.2350485163441251,-0.41215024781908854,1.5250542037034422,-2.1027363616437245,0.37133121889720594,0.54879100942607806,-0.46532400953153091,0.72307664559047513,-0.93749059897713083,-0.35533878791573015,-2.2080525768601107,-0.8428777624348377,-0.58981974270987125,0.084865422920976027,0.53553069345464099,0.92802389984281941,0.33600407201763055,-0.44080991495254146,2.0996408004101044,0.95397679530768187,-0.75810642694866692,1.124173704640496,-1.0792702592313321,-2.0605776594607739,-0.70524219072272043,0.29554533884992856,2.0314490131968315,-1.4484000590839907,-1.0645780366942785,-0.29987416645871817,-1.3311389113830769,-0.038513193489547966,-1.7500660687847309,0.11734171810342005,0.29550051297582858,-1.5738852544177184,1.0082461906177209,-0.46567995990120231,-1.063569021378852,-0.24151987725506077,0.49306430756795849,0.98406749517460379,-0.56924621267578013,-0.44233396047715423,-0.6774988433773822,0.16290837723667331,-0.79217302223473041,-0.53778211114695462,0.062186046006130043,-0.83750327254117807,-0.64324735100101427,0.17003864848576833,1.3243348212933852,0.65271432499804294,0.60567485659470754,-1.213982226654061,-0.68497350803296031,0.16082239276426885,0.18824559156524701,-1.5470590429676983,0.14044753299450435,-1.1892946893295655,1.1160207845137484,-0.05296730558195388
0.076367503548607246,2.1447709693572508,0.052846092036220496,-0.87782278241452316,0.67983330544746745,-0.99519171521120908,1.4223901999671222,0.2235682371158087,0.17903855853430395,1.1489618678832165,0.5683630669195312,0.7033589152651688,0.78800143065067241,-2.1812569087960005,-0.26176428588439249,-0.47313779924007981,-0.94227599896553971,-0.30563519165336245,-0.78070318483030166,0.45593385743810422,-0.74094397293043956,1.1126210127177465,-0.35830428565904948,-0.52360908547583573,1.2651209590085666,0.61434236309244683,-0.072821020008239229,-1.631189259860981,0.61329973054021092,-0.072254984300572728,-0.066405163472856812,-0.33434626337445439,-1.8285751867425155,0.48854274125066305,-0.75940529788798383,-1.8451432093884941,-0.56624847265150746,2.0836013168250056,1.50095038036969,-1.5165349091791509,-0.97792013334659944,-0.97630250718706091,-1.0720591105789223,1.0327147043902682,-1.814120760166833,-0.17104918583274303,0.34069593819439298,1.1533123112035009,-1.8877886483824662,0.30458852303210682,-1.1665545506643948,-0.074736317667663602,-1.7553295463853398,-0.70718622210020288,0.36543686728349495,-0.52267423591684381,-2.6187280252463774,0.62363091217392452,-1.1247299831149133,-1.0841026027621086,0.91351390364384788,-1.8104137847122379,0.31816395723959967,1.2423494176287668,-0.056258897693248919,1.1266092381383763,1.8827359329654438,0.43910963531354907,-1.3587999949185701,0.74268783213513767,1.3157540452257437,0.094529895724711197,-0.74630280098915114,0.31354287349152715,-1.0047345824092644,0.30166748276100247,1.6036749593452946,0.83435827920025196,0.83329659173325199,0.85038258904950925,1.8745272199768173,1.5507533171643171,-0.66294942235375265,1.2692563021350407,0.1886792526616981,1.535260416334469,1.6492968355450424,-2.11923550629463,0.47843106065033114,-0.087286369411447295,1.0043554026690185,-0.33117194671744676,-0.72395620880648959,-2.1744154648533942,-0.30875689730800643,1.5489482302142588,2.5373842286151111,-0.74902251216813265,-1.0032287624741441,-1.7903341307492506,-0.16118980505700797,-0.22663179148531182,-0.48186758383973377,-0.57006653021685982,1.1205316207595248,-0.60738931638850913,-0.54270072365572042,0.59858624138769134,-0.48433814238254608,-0.50809817047381334,-0.50879922574964953,0.72162706913936914,-0.2825769059975628,0.77578027216800749,0.53142225106499053,1.2392490147120423,0.52695894401872967,0.8339735305782966,0.017135463368435463,0.43658766909545899,-1.5765937872282763,0.12223108657044059,-1.3457943605210461,-0.30054099807313561,0.049592996256909889,0.37920912402584189,0.5322934778744276,1.5123454470164257,-0.042012450668630172,1.7679030335422958,-0.78470989738849584,-0.78063482400004669,0.58042695225808483,1.7172015206746938,0.59767804010442194,0.24491283868962194,-3.6658821376549633,0.43005066470799375,-0.7577793378707206,0.85422763860486939,0.69335882788778525,1.0688765412140362,0.94001797849635504,0.90884305283813449,0.10393620827062132,-0.066720853296146729,-1.4846008545957348,0.95036055363638916,0.48899840715119774,1.1106326309866472,0.81608504601850496,-0.54327214752244679,-0.9107241488136133,0.99203843431772099,1.2219274706630483,-0.10477909667525596,-0.33250999288155053,0.15738716478102571,-0.89690183209765417,-0.83311818545708716,-0.018483709906332225,-0.30309310432678865,-0.71350931034140186,1.3036860962025394,-0.90894310896717967,1.6293573050936423,0.16785017313388897,1.1521320426252557,0.85185902066318853,0.24191099444357186,0.10656589503074812,1.6127402996297722,-0.14468053132981121,-0.40081796216210847,0.78253792832359592,-0.1058186329201013,-2.9542372294512376,-0.90560576417832772,1.1454284246414266,1.1800702568082513,0.19959828497717025,-0.0066040974433246701,1.3300528059395458,1.4928091379693811,-0.15781016006608209,0.4765877904227539,1.6602331011793552,0.55580290987123471,-0.19574806498409017,0.96191876702184043,-1.0931585486100845,-0.85594632127851344,0.16660828682479406,1.7500085567540493,1.0368317186096407,-1.2957936833249419,-0.57038833779261877,-1.0253052944225516,-0.60037500799181664,1.0703081358572686,-1.3423950955222821,-0.78312584022257059,2.0444336002855468,-0.585495729728985,0.066925116835733475,1.4113464183133575,-0.0039527964244999401,1.210823369627634,-0.69347230162321805,0.92168853886681434,-0.90160493213114201,0.066221082448638585,1.6561346899283469,0.59847389492859715,-0.54810655683885434,0.35437236314956833,0.048737157564842301,0.036564880783764554,-0.023268957683145405,0.62244099298014788,-1.7538913631529729,-1.2406209291238524,0.63008917399477893,-0.12120045602829831,0.53004632346426928,0.87189211690788659,1.3984962374151908,0.21557143548454871,0.34789589234719182,0.84858087920068659,0.21254020559106168,0.27585001342422544,-0.98779802277221529,-1.602230631053956,-0.1866273171970039,-2.2631236773781862,-0.53655761027198268,0.005575166478170396,0.18906459125895109,-1.0851747459772325,1.6517329991220617,-0.087213380337973337,1.5361436000163018,1.1452763606122007,-0.74813487394734068,0.24584121560925798,1.4363079201305902,-0.32476657027593647,0.30197811113588441,-0.25124994003107687,0.073388722626092542,-0.76696902822783486,1.398955564807461,-0.050223810118934779,0.83484168439288076,0.040985067290261565,-0.98604487352537695,-0.45923351152310632,1.987031561723837,0.031283270763305331,-0.3962019119581246,-1.4717890353537455,0.95849820751903625,-1.3150547309791085,0.35240877541242321,1.3267909280066574,-0.13945549197244533,0.2811074006684291,-0.22969418635850228,0.94587720389840535,-0.26078545674188552,-0.83160775371482698,-0.72586552618969002,1.3440372170950239,0.56266386067259111,-0.11302674502030134,0.17305008752809606,-0.71665957481356468,1.2256773418042464,0.24454618658316538,-1.9994679748691384,0.055985781044823622,-2.1845863254825906,-0.32922558824452025,0.33280789810125122,0.73021218736995508,0.5072028936825097,-0.28945275525930581,-0.15082031130325371,0.55257335020122067,-1.4435054752515875,0.16801346951113005,0.410288921403136,0.81432213212144777,-1.1971044215480553,0.17359248335750049,-0.00022381756400674329,0.23038648839785139,-0.70961027275857269,-0.84093671060679609,-0.0073782496865644502,1.2130985471525302,-0.54378605866159324,-0.96043116161267383,-0.079377191291033863,1.7437974845488453,-0.035296777012938957,0.62185518972087084,-0.19745472155944555,-0.53271292863932485,-1.772767132758841,-1.1552829987845152,1.055262821230053,-1.1900329830676679,-0.54068885287371815,-0.24939731386072203,-2.1172412441516815,1.0476110241565664,-0.65038214392529103,-1.345856088119026,-2.0354520635102844,1.75744099982274,0.21253595205765863,1.6525388027145045,-0.75565677812989407,0.099006547403325887,-0.029823251936399064,1.7122686360212627,0.30497569057133339,-0.41875300547187938,1.0794637424382916,0.11800664607194872,0.040331657793568336,0.31468724599895692,-0.75263819927767883,-0.19355434613307398,-0.1916262501085178,0.50537598186729138,-1.5519933299629989,0.53752307905369157,-0.041276153842892252,-0.97250053127937508,-1.3266153367127453,-0.62909986241303817,0.13241466608305474,-0.11550360832719189,-0.58899752083910806,0.48267735841126852,0.60399179311480777,-0.89317552851201187,-0.98944084565669144,0.68647789721912156,-0.3203208309048885,-0.6877973039883194,0.56516707213098827,-0.42751727649928628,-0.69435384008378009,-0.38736128030256256,-0.91945568536654099,-0.53573253500731444,-1.1196361452160808,1.0654487406480553,0.36821014974988137,0.94237145961038871,-1.2032362639075174,2.3336027568167697,0.060296401687832485,-0.32561208589923102,-0.49376604593768353,-0.09596808788705298,0.6499497522305,0.53471768639491102,0.36169690377173469,1.2257670442113331,-0.66530307485999318,-0.55405011366912926,0.087054997077838675,-0.33999933926059589,1.1767151385641188,-0.60750010750418026,-1.6618855488057838,0.39642026578112638,0.16627547032887444,1.1290941913906798,-1.1127226431255024,0.28209262415532399,-0.947472245277445,-0.15189882808319333,0.98277333354363683,-0.32241113043520286,0.23848126757985691,-0.26147178351749567,0.23469211976029081,1.333784043430547,-0.92551700607862419,-0.24093766671727004,0.33656520544178842,0.54687854231323996,1.2310876244280839,0.65087199780669058,0.64190693404905219,0.59953554141911203,-0.10898809112468365,0.59926063591207668,-0.93043988134080191,-1.6086452307538428,1.346515956995727,-0.82262634913486243,-1.412697341426226,0.52468807260204964,0.12065424488694779,-0.068079647480206659,-0.43651859391505937,0.96790693572499054,0.11055743077694886,0.12193261158893288,-0.59834268256099055,-0.7278657966485107,-0.98951075902046237,-0.60529321111432477,1.3323480677611583,-0.46124183869577573,-0.45940009972759555,0.42424401872357698,0.58520466467190757,0.21375561439911817,-0.083704893354969334,0.16698450183181704,-0.92827883955134083,1.2450934350161689,-0.072473931581202716,0.2149814468697169,-0.43674880780988584,-0.69008122161443419,-0.66363299853751057,2.6681478135316183,-0.46009290351328797,-1.3140620151498983,0.14228211156803597,1.1022525157053906,-0.079800079738213348,0.21439049944315414,-0.60529652321232996,1.2375717554317529,1.4409718607669235,-0.39547570724929154,0.43053158366684785,1.5348135974354193,0.36886449548902794,-0.14168073901262465,-0.89183962168167041,0.38871791993622185,-1.0992262714326146,0.34354048405686249,0.80542724226046192,-0.014569893227925674,0.0069988413324693684,-0.58179440775835856,-0.56526574707089272,-0.63772731821922812,0.49138413776318129,0.021096054874309721,-0.77317873792378389,0.55846559491599601,1.4108674714253424,1.1982314246612518,0.19800242156573242,-0.88630535455390114,-0.15580990635717928,1.3209449466409098,-0.11330306902809041,-0.43177142694730281,-0.43466281484791119,1.1825085315874049,-0.23617223714891181,0.71761408791909731,-1.3759434278594422,1.2579384968151432,0.055997965462739725,-0.39765910292066897,-0.21091653864804943,-1.0827218748186638,0.6684972277873612,-0.35761601868312609,1.0581914819403455,0.55614990408349096,-1.7211247591224272,0.57451840426030609,-0.42134194565455091,0.625513925882068,-0.1773192243935163,-1.103826606504299,0.86479845907761133,0.26626309461894965,0.25057515822799215,1.6822031417953218,-2.1199784819275314,-1.2817957096874122,0.37050971935131399,-1.4325882327382495
-1.4547941280719141,-0.83387688176270391,-1.3712619726981992,0.76100668133034177,-1.2192833654734951,-1.6470232297580565,0.38503906467807991,0.99941264054226409,-0.74369351871772438,0.025000098669960141,-1.1039902570969451,0.57708261900484681,-1.6316526768686948,1.5018854380388529,0.67665932584070054,-0.20605520660208396,0.36822457703652972,0.96849100325589732,-0.81174270737763654,0.28635668040868811,0.0932537476382342,0.32711998480978993,0.56773038117605046,-1.3903809180496214,-0.27152809579038722,0.23304018948078786,-1.5783325252147633,0.37017033343456757,-1.6161298952656569,-0.24353560545479566,-0.22130696354685767,-1.1008496814760382,0.75996675311702688,-2.3962975478671913,-0.51094228845403822,-1.4153724540670609,-0.32168867230188974,-0.89298861812779062,0.39923666184442708,0.39837828242383616,-0.49718444870073986,-2.0325116535979455,0.13547999201798563,-0.33130638711580562,0.51615162278609439,0.9360347968686259,1.1133237427938338,-0.25858252876116772,-1.5807958124835662,-2.1804275577369023,-0.82384446901799868,-0.55002567658641077,0.46187505327413619,-0.81459875357750466,0.1390445538558282,-2.1040621352622457,-0.13335158041048564,0.57779078621253555,1.1668287976762228,-0.73124444965220747,0.71892988590519069,1.1655336090962023,0.11839936090709137,-0.63606317510612631,0.26658186921556593,1.2649932724563817,-0.037705168163635477,-1.0254716342705081,0.1071927112568835,0.74416042252720571,-0.0097251034626946557,2.822600959488657,-1.3382605089014599,0.046166749236698938,1.2862866213719901,1.4306888213836091,1.2261135129467846,2.2013884996847182,-0.28449033855636729,0.086785509250470988,0.83578338316955425,-2.2962040772924914,-0.88339832224405201,1.2864925148034769,-1.0337248096002478,1.2719959006905515,-2.1788222943149163,0.8536620487553106,0.75082957049026655,0.81835454974704547,-1.327845602813247,-0.07614878936338268,-1.9816343197192059,-2.2355111891228532,-0.23541442600525722,0.35064025117918485,1.0912470256045905,0.8088356454657798,-0.66666205977833815,-1.0512724518557715,0.57626022061125293,0.022838963688585831,0.31222186001455798,1.474136892641849,0.56618498432804965,1.6210342341220403,0.60794759726557579,1.7843214273593155,-1.0910884710479269,0.26409538321173143,0.11147063978637209,0.3458642522064802,-0.81560457502288553,-0.29192043956544395,0.70712329895644821,-0.16575950425219488,0.86446938629123038,0.46705732454222543,-1.3043525963369145,-0.68253314295234058,-1.3550774094819964,0.14861126468391589,-0.18484385071858334,0.016202844313236847,-0.26613728373031403,1.4551817816768993,1.7682232770151185,1.3885409827180566,1.2706715509960151,-0.82570892117671624,-1.1746611791940418,-1.0440826847485638,0.19049984191467864,1.4009699127678916,1.5869154893540507,0.64660361115238396,-1.8540622000437241,-0.13487748237678288,-1.2717335267678165,-0.47287543645353203,-0.75373349327417827,-0.77857631741293787,1.1636808740840385,-0.76139389748573871,1.1820067971577772,0.77465388735083751,-0.98684418459853562,0.059445833014441833,0.90767632814525612,1.3160232770106706,-0.4888577025464384,-1.2521155164206481,-0.85863948826739211,-0.023855239085649068,-0.45737636235190465,-0.010206193825759423,0.78317335799277621,-0.091752588270718444,-0.2496706823249043,-1.8275380810093838,0.35674956511962019,0.12929595401330443,0.89498395147666843,0.98820664284708581,0.20464441586180429,-0.052115681310314743,1.4351592587748425,-0.82700352723013215,-1.4263139074862341,0.017692826503997165,2.2100678915662724,-1.0702380928810857,0.93662140733758181,0.37619308801628626,-1.2433767530488298,-0.48919248828399531,1.8799322965527492,-0.53895711018309234,-1.0979625319686102,0.082039099354309877,-2.0405247543133935,-1.1901062778665117,0.52802472430953507,-0.814038937493335,0.14999976970161205,0.12577130923542407,-0.72234322619760938,-0.055092281942568391,-0.55600206671080299,-0.59898290093584616,0.10203047326460564,-0.50994123461143159,-1.002327064713636,0.13838685101600426,-0.031015830346240697,1.5181800341598068,1.5759193650532428,0.87752656913951255,-1.7026909276384325,-0.22448942512614031,2.4768015570880118,2.2955486418177022,0.02982772642769339,-0.14840542451324634,0.43585747349445431,2.0517557514346527,0.17248172829474387,0.029384511920977682,-0.35323875209890454,-0.20988848644607516,0.42738438861594441,-0.063565950275973726,1.7050832056796319,0.84916170075367781,-0.39565277855644987,0.1482875435887718,-1.5954640961216273,-0.088084154092616065,0.30192518620374004,0.90452506842238833,-0.42749317422666133,-2.2789086721762426,0.79935278700017132,-1.0953928586137871,-2.04012050866613,-0.13530593590207607,0.77616639255746267,-1.3957157861320191,0.96167862925760372,0.80068842382950933,-1.534145765597156,-1.0968387464158522,0.16591680445365745,1.1963584774421177,-0.54156827336347158,-1.0731489058375772,-0.77574948285357148,0.047285785392543939,0.31801552504242336,-0.4847108777102041,2.7483935244328919,-0.36760990433084006,2.0012867343079108,0.029207808126479922,-0.42162539966317447,1.8061032693684047,-0.98873035841968049,1.5532739076032411,-0.3521436458835146,0.6131320861500692,-0.80639571589887848,-0.11440450984687796,-0.70903081473070528,1.1077352614202405,0.89802106032099471,1.1786966011285787,1.0383173877145988,-0.052883168428309639,1.2201653081352708,1.5709676324722794,-1.5119096049859997,-0.67679239060661245,0.32139605273029531,0.77595714087277479,2.2329216445914377,-0.51939207261798881,-0.71652561617261568,0.96265333329990133,-1.7678172946166419,0.93695181963676311,0.04921003623146903,1.0043367033618322,0.023011770798515799,0.24513015231974802,0.9120163305960024,1.5746674393068354,-0.42072150042195083,-0.56903930580377304,-0.42229357249413541,0.78935933984735507,-1.7193440552680535,0.34275631089268388,-1.4139565438452948,0.45763596594410977,0.43794580135332678,-1.1042350303823405,-1.6276165293930938,-0.50678989830900834,0.62481945586290788,-0.90173835256803414,-1.0656758127932855,1.7627231733016437,0.045575528510453621,0.50123074002920831,-0.89010996827538158,0.076441880590974606,1.4279378449594196,1.7621556386511912,0.33033277452592574,-0.17569391796252543,-0.1888006851354512,1.993238169492775,-2.150446031001493,-0.39801009137279725,-0.16259001923579533,1.6391732132681638,0.60230289623793121,0.62287794493493565,0.90210119775682351,0.13268561100110729,-1.0844457858753265,-2.4570951833745585,-0.16435203569038914,1.0968373485491965,-0.31675466856430839,-0.22123521912423785,0.069928981550630501,1.0975136725089647,0.64645776847532821,-0.69616034738448496,-0.26854248176138373,-2.021591928158363,-0.33372289392450649,0.41754454933118518,-0.65179126508929042,-0.52474995367766475,-1.2938654054104415,0.16516117136176636,-2.619332461552744,0.47961167499091573,1.5345146004086438,1.8678980063940924,0.29430209629145204,-0.63538635163835622,-0.079511082378807191,3.4144631029655326,-0.6436956806794828,-0.86299411301767082,1.4049496249632012,-1.0815386000297924,-1.890242424664446,-1.6133281147081882,-0.12194828672914403,1.1372571396607538,0.58888142985998304,-0.513731943379512,0.79835402480632567,-0.057832680582042877,1.8875976067157503,-1.4451018828343916,0.2549771042599861,1.453701429692333,-1.1762466277714863,0.06264767184867015,-0.55655802874668103,0.94621737198902789,0.73343373974097037,1.2013190710771198,0.73877096979369561,0.98010234685725273,-1.1242529242553057,2.4658669714465442,-0.79112401381229347,-1.3631742147255652,-1.8739461280536152,0.79244728758882899,0.22158919637026811,0.50940733763768675,0.47108809662120976,-2.1483826952523275,-0.23847031102955532,1.7598077438721358,-0.71416131239922465,-0.44588766826058879,-0.013492883377509106,0.61567880550169707,-0.364138510449034,0.30543672834892616,1.0238909976560566,0.77001923724170351,-1.2325904543857,-0.83486523414675873,-0.21388638643745306,1.4141690480577145,-0.44427866960101992,0.16511036804426707,-1.4189018280759509,-0.1430634658129897,-0.24958989246822202,0.37502774789510274,-0.59285720907745765,0.46500151094048292,-1.1629434595624386,0.61621620372981234,1.6349481901042433,-0.067908734599376908,0.54518140790905789,0.71905686982783545,-1.6980044869074828,-0.71061537323613233,-1.1750200792365249,0.6779392856137777,0.36145275130377669,0.92658598500317457,-0.10287163847696103,0.59704493586435015,-0.35357635657677949,0.82657553315225352,-1.5692352229707793,0.92113644532013028,0.25818009903407252,1.662906932424201,-0.2831969592418016,0.20391449292618299,-1.2281808803117091,-0.10633085006081404,1.6065453067642836,0.45738022874309486,-0.073027604353350775,0.18189157296558447,-0.83220240191972983,0.51393249288547727,1.3945034837229957,-0.70352731862545048,-0.073140142136357306,0.74720785734903561,0.5757243432221969,-1.3500073255288412,-1.1778995972238133,0.53208705952002311,-0.21907805075088096,0.017952291423729186,1.9530156954653706,0.82348610315408433,-0.6154774689812833,0.103292799658791,0.89587427801791542,1.3264355091305622,-0.66931548850891431,1.1289210165219743,0.088732780061028971,0.094057903723133149,0.33068779243844443,-1.0165317127674811,-0.87529309293630597,-0.62855980515616305,0.99077858031916943,-1.5028071707954769,1.5064059569930932,-1.6823749384498621,-0.83543649181785284,-0.49857430485815707,1.0178066275634894,0.88762135636216211,-1.2704259772222606,0.13878579577563915,-0.72551119797269659,-0.17811819454196146,-1.3909977617780358,-0.99918721618222683,-0.28333839203291916,0.067699604808935485,-0.88296408196823573,0.95186909665364605,0.40669976158691018,-0.0040292633639932764,0.60666217583552962,-0.22309722508276267,-0.27265473424261,-0.39834371035081007,1.4399668074399101,-1.0220508404970106,0.4367040180431781,-0.13807454624139948,0.34217694297026774,-1.4803158675851742,-1.5364903415942157,-0.26718129902221577,0.55821141800705409,0.35345736392530142,0.54532352754046487,0.55503911948204521,-0.46180943478497838,1.2458463178899359,-0.79210737099771866,-0.49652528322008316,-0.1500183553717519,0.73115861144582828,-1.3261603131982516,1.042180293023462,-0.56960612667758848,-0.057148187901055948,0.26089049800978931,1.2351637115904124,1.1303070848577792,1.1520106844575644,2.2774514543104822,-0.39483408433731071,-0.53355928973960409,0.68516053451403591
-2.2707305601196874,0.023285073312758704,1.0507033296318045,-0.29480230913738964,-0.46825028278916819,-0.12886153152832552,-0.67450167282622042,0.42855185717247424,-0.8299980660824372,-0.22718931467901995,0.10937468627879807,-0.053844837898861221,0.28576761087268382,0.61555189800219168,-2.1396907693475318,-1.5908553151440321,0.6345769194050237,1.4675261720093327,0.94412537546319109,0.61431597719822517,0.92283560249331908,-2.0501715198734112,-2.0447132610577237,-0.60273433636512042,0.16725762526099636,0.6255467754885905,0.070321607390309571,-1.2886426061634804,-1.8120996162618066,0.58845117638281363,0.95265458873365327,1.1284191326043425,0.060572138312681371,0.19538978186718636,-1.4887017794205726,0.52114707130203797,-0.23860411636532888,-0.54668620948518543,0.32109450736431694,1.8719927041853053,0.78340300445645161,-2.3468952782273282,-0.34569373664069186,0.10615015891834477,1.1148097086240152,-0.50123055666394145,2.511053573473077,-0.44044780794599925,-1.0233514945217146,-2.5794423876004968,-0.1323373202439671,-0.52741840380726068,0.66020685895209918,0.11421905665387061,0.46811285805865283,0.16647266078416978,1.7584051395241376,1.5781511237856851,0.40217077335547519,-0.27092584757475363,-1.2345280898212063,-0.51631555930163997,1.3970814002150733,-0.15380623541695571,-1.1176842513094991,0.45816434482892326,-0.53989567729706756,-0.22986607300580561,-0.91955141611953584,-1.3195605018352885,1.337800874966772,1.0107236261414556,-1.8736437248867077,0.83761518002681934,0.85108897657218763,1.6784482865681798,-1.954310892877418,-0.68230465576037314,0.3059835875248757,1.2455489436228246,-1.007855894264547,-1.3415470031058558,-0.3442766538465224,0.45209923740416291,-0.27422481673484667,-0.23490723855523263,-1.8195840838409909,1.2634887284792229,0.032873125659238223,1.4796964661777494,-1.8609002483897814,-0.08048677333185239,-0.027942944827827349,-0.46833764592127508,0.12463998313984812,-0.80122859880955466,-0.18321148636129428,-1.8612133248098941,-0.87933596575799633,-0.4915945619398378,0.9633720189528725,0.87817306344570378,0.30396544440127721,-1.1431828261587516,2.2398087438656233,1.1239585340110108,-0.041280606539190919,1.8764388013495141,-0.70973326820113136,2.0956318803848477,0.8360392771753864,1.0151386551465764,-0.18780965680998918,0.050577835914524687,0.59834849882215579,-2.0294277579662259,1.4839258971420897,0.010909807811323067,0.27574208120503779,-1.3162671090026599,-0.27123499028072512,-0.78279968524087884,0.073996352400033522,-1.4541633564581611,0.15118613294135738,0.056513097124751117,1.2989040439876895,-1.0749919534249908,1.1738261780845032,-1.339434559548502,1.5490740467455535,1.6012440936027035,-1.0898837006656474,0.6368257390214096,-0.49902572743296791,-0.18875546810116081,0.81872612551077173,-0.32898772394251402,-0.39628303038096668,-0.58921221876149876,-0.044239739846552842,-0.99718942212555994,-0.56780055233071425,-0.24215695157942016,0.92029461530315748,-0.684021182182877,0.88193651913401294,0.25281818603393952,-0.34702565437702643,-0.80692361981000438,-0.59995334968056624,-0.71266499318889154,-0.095828380901888471,0.38234282425976668,0.067860574921257924,-0.31656894742013958,1.2449460687789657,-1.6591521124515392,-0.77856604337042767,-0.43540132924420927,-0.76348531999466851,-0.19889422357671496,0.8439171862850815,-0.16768634242485533,1.3020819004687401,-0.5213829252226313,-0.013230682016537439,0.93258463505680422,-0.76025064382082108,-0.2593391906845815,-1.8255561224417143,-0.23098631329916935,0.4302271977304063,0.33452952983125334,0.18619496723505335,-0.069405879663015924,-1.3046237096884741,-2.0108868387017393,-0.23814641159983338,0.81509728700928341,0.63393347632055186,-1.6414176491301029,1.3298199507748634,-1.2599673868265024,-0.061429286819840868,2.135974457275279,1.9186971579578966,-0.33499449851913898,-0.35942926988037799,0.0020530563731129279,-0.21585261279822227,-2.7846514567301268,-1.0670115054826872,0.45954146223753545,-0.41858888598274058,2.3538401347131002,-1.0533084481190327,-0.51801935434023383,0.73311517849965979,-1.1760415502082935,0.89037508343141503,0.86533764916257305,1.9575883813917425,0.12720017524456281,-1.2206872360543626,-0.48813703637637201,-1.353152379843813,0.93146629627415234,0.24814556270425603,-0.069185378607290168,-1.0184212083791735,0.80570059823464046,1.8467336353166639,-1.5667749660479375,0.019747068393977257,-1.6340751808267493,-0.2891867730401253,-0.19809561807012138,0.21011941022732944,-1.1974241729273873,1.7033742008818296,-0.71888873706700018,-3.0676740182241371,0.41876028097117168,0.95422768323284834,0.80876075004118408,0.99710105181561937,-0.23252448004920542,0.83869782963548989,1.1549416883323145,0.035608859215794722,1.5133462986008783,1.4652432925119871,0.99507347037935079,0.74648955847995357,-0.30318236045095148,-0.63622795134825538,-1.7079369153138042,0.10538772981570305,-0.96838606452111631,1.7177103238086471,0.41344193635234122,0.020099572694330478,0.050982662398078187,1.5929927135981339,0.61114312836002127,-2.258007704609621,-0.95818307232630018,0.60384088275624914,-1.8153588185720171,0.014889255378733512,-1.6975042952558761,1.1442901825619807,-0.87271807586694772,-1.2514070883850774,0.10601384078925269,1.923984782864766,0.63964012025331485,1.1934452613658124,1.4160428889439656,-0.34909844966977799,1.8084812941114148,1.1099698251527654,0.37112985697123957,-0.3500642681884541,-0.4415877417432082,0.21706440255193785,-1.0948566151363655,0.017271480369019789,1.6089179906107807,-1.8518120854394167,-1.705149980171758,0.39952923610205532,0.64746581613256404,-0.97724052404315309,-0.14669318802789935,-0.13756551495593544,0.52467468364543512,0.73240769668513328,-1.6697617497154942,-2.342020803886502,0.093429471563535607,0.24614367920169508,-0.21388996641321589,0.24265916421919936,0.1429484611897443,1.1043859473667621,0.20018971658607385,-0.21000140438901715,-0.45435389968250606,0.36281433979257621,0.79568952743889199,-0.55509187800519222,0.47413726789074429,-0.85167892930219702,1.4712641149368799,0.76024696362884836,-0.041663337917291307,-0.27552975723245055,-0.012349486282391946,-2.6205826571023474,-0.082506394910417197,0.36934075465369304,0.29078735204350564,0.13970504749370588,-0.44497841955609319,0.22064202118951698,0.17292762846784365,-0.87762187002850911,0.97449145573154361,-0.33755019436979505,0.77504286558851365,0.57674448330844097,-0.4170452105842849,-0.38124212026054682,1.0508462516408741,0.78104333198402409,0.15025670785782713,-0.39251860552994144,2.415267735163213,0.30931428094732144,-0.4812456602285915,1.0749603923807645,0.082802102342292808,0.6650159153111469,0.95006776604995558,0.50389734327321178,-0.05114332613637617,0.05281659716984196,0.011644190497948443,0.38856271982802071,0.71758354284499115,0.03064035717424413,0.3309011111691107,0.20250584755263018,-0.98499309127519474,1.04891736026545,-0.0056068955348933091,-0.98038743008363805,-3.0500303412566869,-3.2911639089404381,0.72240740427555827,0.061108711790049008,0.7177029659753269,1.6900889028195654,0.39570094043700538,0.36616173750512204,-1.316574903211261,1.1574126565840142,-1.1118720130162332,0.037507406967238401,-0.069685616995724856,0.76304583876902499,-0.54930229714500378,0.28416667296613357,0.268283328406491,-0.72767560686787314,2.6276599006490633,-2.2035745325443363,-0.11396059063231818,1.6480230853761155,-0.91407686950070022,1.4511607446457695,-0.1305585151928749,-0.29266506798324127,0.27857927423838075,-0.82511970525147238,-1.1118130330358627,-0.83796031922174929,1.2190763232755724,-2.2646433370838905,-0.12138450094521977,0.71381377673680158,0.49983780486309209,0.04145732536672813,-1.4262745725840376,0.056196385093899903,1.2823495226226274,0.51309670601374902,0.20683775021744399,-0.75390942616550094,-1.1651245827175032,0.66608217126581359,0.48154920426716019,-0.4156878887106179,-0.27793374829000467,-0.052755597110071883,1.0806370697609982,1.2734514816178466,0.95432020550152996,0.021040499589469373,-1.0828933176538107,1.4328749678784589,0.85323248096251203,0.612204990632368,-0.12985189271353736,-0.69267865891626623,-2.3324022219823068,0.91222508436150263,0.62126243039335116,0.90273532922836774,1.208644600982121,0.98073486403171439,1.0474709561836757,0.8783883586042186,1.6322062289957511,-3.1278613411761564,0.77841712538116681,-0.35398742101520769,-0.75025259068360517,-0.66453635564129276,-1.733137032839448,0.096531329768448415,1.2178997329221759,-0.30640886917749505,0.058662237187641603,-0.15578630109982144,-0.49072178402186195,0.19704072270898743,0.50173150555885215,0.18364488076654176,-0.78625763697002049,-0.36854789989362902,-0.84078069606884565,1.3543785045038785,1.0396947845631008,-1.1073419650240104,0.47837653284695764,0.65161303227647482,-0.41382688239031368,-1.5477176157589938,-1.6653067547485112,1.6302652841249339,-0.80200610386306093,-0.28766030144477894,-0.16364433549449098,-0.98087911750523216,0.31425972568410482,-2.4475650645283591,0.062088388782114402,2.5416010953165395,0.69942229045092152,0.29855097416670184,0.70357777833962309,-0.83354342164794393,-0.47957260764775461,-0.50093074828847794,-0.98389124908513104,0.25984216137085725,0.018631866292008921,0.5190981770875237,-0.18706178631906062,-0.81368895531339136,0.33238217269240794,0.4274953577210473,-2.8303013263165191,-1.5224750930243101,0.97188812744569153,-0.33239494679092002,-1.4899630181475128,0.95198274113456582,0.71577984721010612,0.28919037927032215,0.35257475736201882,-0.54709272995492153,0.84670900874899135,1.4097763932384622,-1.2710293224665876,1.0692367747126694,1.0222250884430677,-0.98783621819719913,0.71833199268021164,0.610724460871089,0.14637703431591811,-0.6276612512817149,1.0839296532184461,-0.25993007042018729,-0.92725369256586354,0.97743646366139536,-0.56814684927774151,1.7398002494795057,1.0883842341520558,-0.073135545120857168,0.66785394815102694,-1.2672458131681266,0.75551626348904666,-1.5692538919278858,0.038197990601559921,0.90167082844128443,-1.4671302900217629,-0.49707741597657595,-0.041116528931951397,-0.36922824090334788,-0.69315887148672539,1.2649952474428343,0.53260266824353653,1.2903677684579362,0.54895526339343148,1.2221214473134159,0.6258661988052181
-2.090815338588869,-0.41042152679086696,0.35109555586656244,-0.36137998476074124,1.3726644850668934,1.5832165952603992,0.9153764096950634,1.2068419155946926,-0.95297066342599734,0.0242934969817609,-0.047533812100351631,1.106163223306929,-0.86459359172570838,1.5179381833636041,-0.79999399626066214,-0.24491155753048333,0.032695268307421588,1.1296803336569763,-0.063607679362076536,2.2702200246543276,-0.13166161723086861,-0.78343220121760082,1.9698803919327079,-1.5809683879902416,0.3865754802357601,0.90499705447573531,-1.3595683589246927,-1.8113052358637891,-2.0879739330255331,-0.03458157761788494,0.29194314609579869,-0.089554622452732449,-0.095030984993719717,0.58234820895952977,-0.037487936433429583,0.78938976110045112,1.2060706031359267,0.013686561974673979,2.2091195968428532,-2.2847498933624228,0.49805718186598347,1.6982999944151755,2.3941543605516724,0.093805017286170495,-0.11372013690969839,-0.92314403684193158,-0.77557398442710368,-0.65879397612045398,0.58536713664018436,-0.75154703036420356,1.9080147872029363,-0.022751317605996187,-0.15364242801791922,-0.21292990191471717,-1.7336725037929028,0.81152171662545614,-1.7751120930972906,1.4933031607373477,0.0086696557915498778,-1.08372620259841,0.57625058612247304,-0.41977388304066365,-0.49848941639267891,-0.096906580018695898,0.21051488679047758,0.366110702217533,0.077577168130813001,0.1497844374204659,0.1192242108385563,-1.7341347866473684,0.84302481357156089,0.46210505731399415,-0.54897393710813269,-2.0713493029350696,-0.10213758664916928,1.9568213437521644,0.088384541950924211,0.71646376315641791,-0.72167257282065655,-0.41866864447769098,-0.77463625631113464,0.27115628772136946,-0.037935463200624069,0.75951800079152099,1.4803448573151354,0.5847056461377339,-1.0539723647896004,-0.21282402084252305,0.5337463118231035,-0.335467445457032,-0.710598622028076,-0.089773705628144101,0.60156607862119549,0.20180884606893407,-0.030312790404666379,1.0497695485983345,-1.3250993694916242,-0.16652009527823239,-0.81161619084124192,0.66585062319852784,0.0029355383701050921,0.95603948572813668,0.082870633083607398,1.0604219689048935,0.43884483006519653,-0.77402092272633882,0.50788339886480016,0.49562154298240557,0.17397444129314879,-0.79620864319724949,-1.6263922032548022,0.011086479023521527,-0.93482963532368013,0.63300127552579011,-1.1360874178522935,0.47506825745044617,0.46246665360908301,-0.27912517211688515,1.5277378132384449,0.32915447747643228,0.77314691646626366,0.90372608487264616,1.3956144831378114,-0.83042623664677295,0.84835847743645498,-0.37092213256986023,-0.43204032560965644,0.21523159928195879,0.035827138692917364,1.1517024061329211,-1.3356293187311465,-1.5851470086349553,1.1761361358180822,1.5356817585457978,1.4525163037546158,-1.1341753146979301,1.741244481058499,-0.71587397529296326,1.3922486631190754,-1.1488346248006773,-0.044896631173183606,1.1663062684825081,0.10292460095875981,1.7666182722235253,1.7367661558666594,1.6779310498360398,-0.29183807773805448,1.185281711516871,-1.3146263082986167,1.6488272345720338,0.7568463146078126,-0.75425874198944098,0.26362570858851064,-1.2382213147450882,1.9175047124249245,-0.91330140499030288,0.67185119107053337,0.013255915842472973,-0.34045764508373039,3.2715386991020732,-0.57847809062172517,0.082277702266532443,0.14867122308806188,-0.27545871341760952,1.3150861396133204,0.7817198518456332,0.073651240574454699,0.49914194360733349,-0.059920663578520862,-0.61272434267351994,0.72854472276626991,-0.092998675632577632,0.66891710087304757,0.70269554024673586,-0.66894813912033813,-0.68622403904814111,-1.5453382897554229,-0.21460396282205102,0.82959208709957499,0.074461133775611407,0.2452828187761612,-1.8053988550503155,-0.84778118890915422,-0.17679678481950348,0.49981838150886521,-0.070072951258193628,-0.18138712837240809,-0.93403523061642557,-0.67239224145451859,-0.035817339340528824,-1.3634725688451805,1.2284660828816096,2.4593721035778819,0.34661832862961967,0.95932713362408706,-0.30518820136898583,-0.22750095183896496,1.4624545930344399,-0.77100417123664511,2.3039311296505538,1.5449283194864352,-0.35418095372669245,-0.33559640027291648,2.0767164373900604,0.23092900274297712,0.26695891324032639,-0.50435755977013752,1.3317228121931164,0.53256943240207122,0.046070699102569022,0.42205608797579092,-0.23306866679045798,-0.016105752610354587,0.39702154327807943,-0.39516617106459118,1.1801420729329875,0.090681091942098113,1.1493160468678518,-1.2167904048370626,0.60492041152747222,1.3581703683817496,1.2833652345233653,-1.2015279912456476,0.12643481658727262,-0.27579099615800923,0.28740611558594542,-0.88739185705192403,1.248855478647106,0.33064003880023157,-0.30169830277425341,3.5946295904156909,0.28042853362842907,-1.1779271557131192,-0.30842999819254385,0.31199797832148585,0.97169870698387328,-1.7122600104777956,1.7266184461088148,0.58675745719878891,-0.078556148485849547,0.44930723030279318,-0.063117647833457385,0.89539413391435907,-1.8750090322900252,-1.2961431076053116,-1.4014615026269439,0.323371088187414,-2.073064780899982,-0.22863941228317611,0.43418274953869507,0.65124071696566765,0.13466466203707683,-1.59271446365262,-1.1697517193781757,1.1386418578891375,0.86053731891868179,1.0889760750086834,-0.34655734589769061,0.30527046079103559,-0.58125870617719233,0.35114835886071621,-0.16450806498775938,1.2063409992419138,0.7456396827459183,1.1915550633551133,1.2852019919866042,0.75515869108420663,0.077339147873530009,0.81660059224051329,1.0257277844602932,-1.0625148910283815,-1.5238775760101697,-0.83128926633021294,2.06146264469964,0.23662539776112879,-0.033874791830338667,-1.0274681103654795,0.90455220977283357,1.109214669903194,2.2216277209052002,-0.80277138954667115,0.57804567685549213,-0.083081049419084355,0.12376589152052568,0.24031622928100976,0.033163941138632268,0.11550850684234182,0.75885735684451694,1.3070173675130283,0.44135029292442163,0.2509029560942263,0.23676009524995509,-2.0440844335732504,0.18553452171196888,-0.16175332805064002,-0.31833966522568519,-0.15034137384649657,0.77614842856688493,-0.092476960637259409,-0.40221841709638578,1.0979997753521327,1.9186493945892438,0.17294359149823796,-0.37235510885754114,0.76280622358265326,-0.85775509373699654,0.24140136861041753,-2.9810001819812229,-0.032871395217386981,1.128436138533164,1.78518393856994,-0.14636300883800904,-2.2134237467235236,0.47905562626029474,-3.3524136463416423,-0.36511013805395576,-0.4261043466117605,0.62737020268548693,0.15166876288148948,-0.10935975773091744,0.93299284150883854,0.8540163311835548,-0.4612047171670155,-0.46546937637617036,-1.6204274419400317,0.1260866511452842,-0.12050993626752196,-1.050945272597364,0.44304896429280249,0.10899206347020084,0.10489280536286569,0.37964391376554957,2.5838375159510418,-1.3021026752213274,0.31578575749925791,-0.81920141610548169,-1.0634498086833284,1.6553690756831092,-0.3824817816974922,-0.28138936567302458,0.96790662453128962,-0.67679226427689154,-1.2767279703658425,0.471910718630357,-1.271177625417458,-0.21047269498883142,0.48014499340878902,-0.024748208015384878,-0.084628352913095922,-0.35900321102646537,0.28618092455452215,2.0716587395185946,0.17068039084844103,0.25160299989361484,0.013973548541987143,-0.4701406548043684,-0.47622689753145742,-1.3891309179037927,1.3724682197844962,-1.4951874369511127,0.67562493300177717,0.36679658642853086,0.10390284038126286,0.99253019201442205,1.0483515318461192,1.6124175518310069,0.15845425684111306,0.013745964939201723,0.33557167564977386,0.15071251591999418,-0.42739563093878979,0.090774372235762055,0.96359650285932974,0.79514244121685684,-0.89680840829901398,-1.8421110929823046,0.15471269697688761,-1.3872451177999212,-1.125743606272448,-0.49171466336125136,1.4107863259481415,-1.034163541962698,0.41848934169394569,0.7346555199670608,0.21582176558672631,1.5322938998051234,-0.44170526658010462,-0.78190993853376378,1.0836576805813376,0.87382017416396585,0.54711672862908722,0.43316839913268429,1.172181418649056,-0.36088403525133728,-1.1029869965341184,0.041978973414498209,1.3091990919557575,-0.1642213864123436,-0.56045372301896001,0.46271098170644243,0.083245072529691808,-2.0525090416256884,1.3502601905035243,2.2102409098246265,-0.26326693948115693,-0.28826896208762287,2.0881470383764409,1.3803404435002085,0.72525074909499232,0.74886052374296219,-1.0714362156405242,1.3844155925496702,0.094932341311160365,-1.3957746123244561,-0.33501834770228045,-1.3101969530848692,-0.97206988449076337,1.6473984101410628,-0.18486551934473996,0.4217093247538054,0.97168294074800088,0.35359927621852272,0.81226273328080345,0.43168863823319942,-0.12983365695418717,-0.54582116050684537,0.45149714886865316,1.552227378415336,-0.26648781907094893,-0.97021608547847826,0.017028148498690294,-0.027972151736766378,-0.25504824902360607,-0.26851932002053558,0.63875932851526984,0.60780505003074126,-1.7806900338982978,2.275487073886088,-0.85173179416712841,0.42134891534151936,-0.16850231608057067,-0.022439734078155707,-0.079213225653071984,3.9691105816475765,2.0927620395149553,1.0379975795414285,1.6794319568047573,-1.8779839407320569,-0.33497647011538828,-0.19562126400363403,1.7086704818228073,0.87478734526672075,1.3284527757278985,-1.135543248685865,-1.8635422209257242,2.1305355270518511,-0.757046628961768,-0.8390707121236507,0.78723345670674749,-0.12842180868598776,-1.5470331607227412,-0.045463231854355565,-0.16570140628277413,0.91769642398630225,-1.4517992642041999,0.84758579239352128,-0.55153964803995514,-0.25300052564190628,-0.81303765374648085,0.44379557977834588,-0.44966016257452979,1.3372496906499522,0.042913023220288907,1.6300889405314594,-0.98885158742207169,-0.24966894137495971,-0.22622368785140384,0.67876216680020007,-0.15980292140529292,0.83265467732428455,0.21821641475454123,-1.7698316786898514,0.9394135930150399,0.27948092041149353,-1.8821743362530474,-0.74823900390825027,-0.40231073059688111,1.784633966718765,0.45901479361289677,-1.0061656095693214,-0.36670097876322549,0.46642187680220953,0.44911572141547862,0.57203913228479009,1.8530710042132716,-0.90308419093841918,-0.47101859780653565,1.0417403855015495,0.011046006150572498,1.90708727528625
0.045426220508080609,0.13535462187059041,0.46111959392804258,-0.70011085190597921,-0.78195646033701238,-0.69110193435381206,0.95661143971273643,0.29876267575013049,0.10367767119162709,-0.13612104927478477,1.1037740819013113,0.3216536832126683,0.98114186074084087,-0.77869654280293965,-0.40504666009241652,0.87674994535895301,-0.18721833567184626,0.41733753268250956,0.0051164013009545569,-1.0950785810064527,0.0027425469499941474,0.18458403955638494,0.28244623080990805,0.36471581825389432,-0.83225244528728848,0.22042103920900946,0.99790358588219019,-0.59634008236873071,1.5978882736758324,0.07380277507885484,1.1632979945941397,0.48430154076786069,-0.51798789684346813,-0.92857904807711378,0.36302368397528434,0.17132741349102343,1.2816249308370824,1.61457498436132,-0.17262879516023261,1.9446171867056088,-0.23356157128561539,-0.30391745807404319,-1.9574361004959604,-0.32591836651420303,-1.5611571845389487,0.34797511352009169,-1.6253744690318885,-0.69064200066063208,-0.071661542109344847,-0.11317292473518642,1.017529981748599,-2.7151091377899834,0.80374465333431311,-0.36516978467106126,-1.7741183121265951,-0.50427660832924204,-0.060233675717114195,-1.0390486382057906,0.7064536498436752,-0.028134813199733863,0.26182342603637621,1.789508839502804,-0.92205914189033689,0.24501081603037705,0.92236130328672639,1.2802376461896086,0.6006611254898534,0.81279211726404876,-0.17734882603380217,1.0205295703916886,0.060443221883323406,-0.25652262450248897,-0.31836229079643713,0.72384534351106145,-1.1011053982416958,-0.34323678775565819,-1.7149594212761441,-0.26304311745215658,-0.17303632763458787,0.14834159550408274,1.2362124954745046,-0.73579989861549677,-0.24393109235258156,-0.79700463282590783,-1.2935596727993659,0.41572855433496247,-0.33618686256720742,0.065782558436615901,-0.97320271534010439,-0.56622682248652967,2.4665112075911164,0.38078291843943479,-0.36439998366655457,0.18398857112918088,0.57133517674492773,0.46698482634951222,1.4222861382582823,1.2534476582638088,-1.614491071550858,-0.64163962203618419,0.21949921564928623,0.22151922383980183,-0.27813754089709397,0.074888035032656355,0.22468756572451917,-1.0341067893837035,0.30719829631222684,0.46239071494947603,1.0644529083878602,0.56142978477864036,1.0866671340176146,0.31053572161041842,0.44695284671153612,0.042140569089437981,-0.62562431866209034,-2.0522227209753474,1.4868864677751468,0.097859099018737919,0.29234728557558176,-1.4109277418013497,-2.0014496203137035,-0.40487117079313623,0.4994049098209733,-0.27336293853748256,-0.13537002120552902,-0.10646348737041637,-0.49603007116802755,-1.0506893044853252,0.96947882382466821,0.62844970192148075,-0.72266027582832704,2.0778899298412967,-1.0699539441999231,-0.99453111995795995,-1.0283602604359301,-1.2345259005600293,0.39188078863536263,0.84920680586158226,-1.1151304336456878,-1.6446805612886697,-0.54480195786839469,-0.5169737176552055,-0.85431568399267432,-1.3697383104536711,0.91668913396390261,-1.8062058826193739,0.88604028552221925,-1.1418301979655436,1.40581396305436,0.55096004475139382,0.90637002701086578,1.337266942434304,0.89056258772738672,0.10147373237494758,0.2307902899396109,-0.61361094773060354,-1.224274468450808,-1.1789138361727509,2.7209885207015905,1.4379832613834831,-1.775779331998891,-0.35543931184303473,-0.097541214114248334,1.1543432647000702,-2.3359218421926977,-1.2727148069163849,-0.20807510139382038,-0.72270693423961851,-0.073462322594414403,0.48531078077493611,0.50981132555890518,-0.31164779310475693,1.4656785011074127,0.19654168797915592,-0.27312100514754639,-0.331359427291679,0.45329788312192942,-1.2410671874063339,1.0027673074015953,-0.41220854777857524,-1.0256618260951618,0.39084770199866548,0.1727771841485492,-2.117140658507167,0.1834530889029975,2.348177971979664,0.5490435882355531,0.73303661681974053,-0.75873987818012234,-0.86887782872198571,-2.6159289780015178,-0.13792165814250071,-0.30009608719068276,1.7303127745251217,-0.26246018161056844,-0.63394325730621415,-1.8210395532815484,0.4370664700157611,-3.110530018288717,0.17788132891450217,-1.9416030515785103,-0.8737482007030154,0.3961904617983048,-1.9465469224855172,1.2797867538684498,-0.087771746979372012,0.99874546775967532,-0.25828187180082529,0.068469246770983816,0.09052708413877332,0.066631000342823252,0.74411120116748086,1.4978185573881171,0.79817188818453189,-0.51889052984936812,-1.5098995229975785,-0.76033771843975484,-0.60593095371342065,-0.58721629914004636,-0.025317458100513775,-1.3308835771592091,-1.4416932966545757,1.3179374896728016,0.75628609927767088,0.34135393565344924,-0.38038549217802442,0.1070732382717043,-0.68919477464329593,0.88807396333923261,-0.64659180203397337,-0.59605976753229906,0.1806158787354733,-0.80875812755571208,-0.64255568261625107,0.67712378622521341,-2.0290412466160173,0.13371071458923275,-0.74681540573035488,-0.1702947193041783,0.067494451396178642,0.059967777313420484,-1.9148961029206202,-0.77635876621272371,0.14964753316346233,-0.41800613988371288,0.75426612684519245,-1.2773322068889115,2.1306743375228012,-0.019526778333359897,-1.0408711834274684,1.3318308726103014,0.19827467110339103,0.26686257244732742,1.008917645280067,0.79810943984317417,-0.85290001567600016,-1.2799036532372876,-0.023107994961119482,-0.72902558608459445,0.93319879283872798,-0.24644918837195282,0.58829129031547833,-0.39106305118571444,-0.91376756869592168,1.3619926052553606,-0.066362339636708831,-0.60695071267797718,-2.1036613558588617,-1.0042138595691124,-0.3814040769929683,0.7078436601357484,-0.19589805347193304,-1.0318390776874968,-0.28390601958808009,-0.027500626265440017,-0.36186630778764817,0.37737038450423221,-1.1970444271819836,1.2969512569884551,-0.85465899950104107,0.66783709253019707,-0.33671114428591492,-0.47533092774386898,1.9998516595814682,-0.60188709989379008,0.34906795768433896,-0.11105749083739085,-0.75001901784683944,-0.095958326657849466,1.8642676817578778,1.4064188382355787,-0.3040466428614918,1.5098399979480481,-0.015434852440537146,-0.72413329655847891,-0.52321079014357386,1.5283854869088476,-0.35646928340811368,-0.047210991138496791,1.2672970777927977,-0.087264963918308389,-1.098532623031679,-0.76071051968716208,0.26301529157478515,-0.52793925975425315,0.38890329720993261,-1.0028562916002552,-0.87173304414991415,1.9562280105913554,-0.93878234910390512,0.49768052290257897,-0.069123011837091408,0.60214460934310188,2.0615329021618107,-0.16536678287592646,-1.5494249452005668,0.94259085985724544,1.483000781567769,0.78593581593733075,-0.41836918147962893,0.79208866281187307,0.89885054342376169,1.8354641720691924,0.76753411765025192,-1.2741237329620803,-0.55547492820822031,0.62540693019026772,0.52637486239080711,0.87790481804341147,-0.24012371980504785,-1.167267096513964,1.0432580917112471,1.0772196889709338,-0.51265541281241511,0.38716682679199038,1.3019886224252857,-0.10341419157712529,1.9195835884527639,0.79549365145889195,0.0056770461145217513,0.24858077906328857,0.60371977128091392,2.5933159270686263,1.7209297297732109,-0.034826257919420449,1.1137778804423408,-0.16253563187845602,-0.1960672472080662,-1.3846494230147606,0.64097900361600768,0.084197729783821229,1.4149016880109588,-0.56563951824150172,1.4614400280386541,0.16874669244959001,-1.2790410273360338,1.3452420554856437,0.23920572997348757,-0.41939320600624624,-0.19815046625767496,0.68523557069484964,0.3005737871087773,0.11982316871518843,-1.2344173654026169,1.1951805264827986,-0.92250161409131914,-1.061958515036751,-0.17383719507174838,1.6365305589721548,0.50949468705583134,-0.45012132731594118,-0.31478808627356769,-1.2552480970350604,-0.19075459042960688,0.42020931968872133,1.2519774621541084,-0.54007767120472849,0.29676784690965408,1.2968858821921996,0.47710117264626156,-0.53758510289242867,0.19874356757763686,-0.24980104119947524,1.4871727738627663,-0.053533335313488015,-1.1965045274265655,-0.36030688362096636,1.6787020976947327,-0.72217621005209476,-0.56346139466137846,0.25918003497338543,-0.28689193634368187,1.3932143041942635,-0.66221567883811749,0.36839330272489451,0.57466445050281956,-0.92188938462487235,0.15871258145707118,1.180699424539644,-1.9304368827778544,0.26167886336698104,0.72817750700968187,3.0646233620152632,-0.55767445678731054,-0.11064957482897111,0.11441047943296316,-0.51463560198209413,-0.26655860680051241,0.27127929731472711,-1.4482006022847391,-0.44227886982822234,-0.85440030240560627,1.4415220941726925,-0.99210344842541554,-0.60982486329863883,0.93020780659325764,0.82535198535034149,1.3724124418242984,1.6428482869002976,-1.0604885113557849,-1.4047082409278084,-0.41894013449474865,-1.7064911813015797,-1.120810130304541,0.20205398701651883,-0.13412911592349749,0.67481441391745967,0.43602554550893197,1.1233049704798523,0.19587562346653814,-0.27428581619859704,-0.47395966889063945,-0.082244845410829714,0.80375255594269368,-0.72849223970072763,0.84866130394569561,0.021512668092743673,0.43619676611709923,-0.837765166169262,-0.037340970025597088,1.4272396790968787,-0.20986776490900438,-1.2007916782179529,-0.50085416221746115,0.50664062275336652,-0.76302482885090261,-0.02004715127214397,-0.38178102193567182,-0.40319235584255736,-0.076573464355081583,0.66686882967727579,0.097151733792721323,-2.7233498031734782,-1.6565396394909304,-0.48643901077700319,2.1908901810523891,-0.50140077575738906,-0.8043238799577106,1.230416912291896,1.4891003254160706,0.60705878349958808,-0.64526821103641352,-0.015445377688149388,0.92315962324735268,1.2830136701516379,-1.5676116782530984,-0.19999391079213941,-0.9379600694581971,0.26078643472533641,-0.87835379786210688,-0.92919059605149679,0.63265384423442583,0.1132281838098165,-0.6830771149971171,1.1539557888668905,-0.3797047649951153,-0.34569069851226547,-0.61744753004082675,-0.61484612586346299,0.14673194293552519,0.58474479009714475,-0.25861913220336991,0.79714888681004881,0.72325165190614327,-0.83091184726571676,-0.39054824984862252,-1.1922862849322935,0.68041026232139745,1.5075305882405434,1.2632806677337931,-1.8246629682301705,-1.3366320091213368,-0.91567047539072699,0.72046528232024565,-1.3075295189456064,-0.066380731719159536,-0.38560678376454283,-1.7281202346709552,-0.36171742919008465,1.2389580529603001
-2.0143160871278485,0.40693896997400497,1.2289938526884987,-1.1903398061021475,0.31217367888976355,1.2490947103010848,1.1677870282231995,-0.85322338471810033,-1.563248992479523,0.36892151252644234,2.1472026948591245,0.63729473114191515,-0.99881584614581287,0.73784140797547193,1.2510914430016891,-1.5049257036514967,0.68871533944171381,-1.4266320379927577,0.46390713833540909,0.016458601303737774,0.56754464751733735,0.60127413954306419,0.71411334432213158,-1.0588406342315093,-1.3359804907440116,-1.4763457523215984,0.49005792222664674,0.9633636298545929,-0.87806174347013155,-0.308500710108501,0.37228467927219733,-0.29754904655942371,-0.94377450311741162,0.26662198628110351,-0.54019756629579552,-1.2372942350864529,-0.14617742385529825,-0.55182512077657475,-0.060099955295200402,1.3296751202917112,-1.3464338592635567,-0.3393245937931445,0.39021805829113126,0.30582413066300851,1.1158352685454118,0.17118407564428428,-0.46994095565830962,0.49097961843757826,-0.4480284044243194,-0.21461238430080162,-0.26663323582231824,1.8922537400983028,-1.5583686514304964,1.0228618183252118,0.83788041335443275,-0.98542118295959535,0.41722516351971378,-0.14783063163594104,1.9678127235335912,-1.2533034119411963,0.27250809062123532,-0.68879924923806402,1.2270020598946934,0.56519297618674902,0.66138398022114897,0.58324994725440615,1.624613119797232,-1.6780880245801717,-1.3198524368167519,-0.20943966805368155,0.25246778550001275,-1.607073451160336,0.88751433509929123,0.46165721385682768,-0.18680633583526965,0.8022875747456184,2.3883802145078254,-1.4288103228882796,-0.51782168066850964,0.34910543448653103,-0.69687289278494968,-0.39600931155003161,-1.0679542691213317,-0.84408775955282012,-0.87478059137914177,1.0876077977046428,0.76388008046873979,-0.93180269284103168,-1.0982929528986407,0.31750693280508396,-0.39488334039309464,0.53039807356846946,0.56340916007743591,1.7880718056113871,-0.63610885357015035,1.7890253877013993,-1.0400068482953255,-0.068165641181241091,1.0139981242570448,-0.90806106595535241,0.91201039433346043,0.77676579033279425,-0.21817785136732754,0.54910803508331485,-2.3312031493975716,-0.2391435390068915,-1.95711690568333,0.032178198393352953,-0.69793742502117928,0.20897764668184929,-0.46199214497364499,-0.97287543800156528,-0.33009513789502631,-0.61791065453774374,1.3302251026694976,-0.75994941053436937,0.77447898351108213,-2.7038842950473851,-0.47188415546996654,0.57362675341247182,0.70853723165027094,1.1987731548044829,0.1748973130308972,-0.42198200244344014,-1.7937409505732793,-0.81898224487479776,-0.81048941775639927,-0.77271894738176394,-0.81561189955656588,2.0020659512233805,-0.64473901662026711,1.0644229983564768,-0.53713510595983871,-1.6894582022237925,2.3999208631850029,0.41346899271584792,0.67517748985571846,-1.835720704632247,1.0913140014430789,-0.4133184935148787,0.63962324608187671,0.08268436937775106,-0.080789929558054877,-1.5691660431922927,-1.3678904029740691,-0.24064308834980719,-0.64269179989410241,-0.069642922519762798,-0.094732703802078558,0.042839839979264382,0.84108313304826243,-1.9699884695964276,0.44220760278940652,0.87354297361773259,-2.3076695238120264,1.3263038797779751,-1.2312594776827437,-0.5935383786876669,-0.012226397437346581,0.41685921475260268,-0.90303536345111679,2.3468503730364332,1.3826365826912443,-0.7593786282142555,0.57920169575362712,-0.71410494781497535,-0.054195081549234116,-1.3719786109355807,0.3677672038483451,-1.1268472464895276,1.1694075894594758,2.4590861501148127,0.20498849519657933,-0.039538204894315317,1.3992263529055771,-1.9737992639723754,0.011293654272161892,-0.38606534137700621,0.36385098334260252,-1.0548965744062957,-0.30617189185161758,-1.4039235074557062,0.11176866818906739,-0.33654995733234672,0.68936597140423916,-0.017797564184766527,0.77208434943917048,-0.17437113033268295,-0.71726473665090673,-0.53890713600725837,1.8391059651095156,-0.34628847367107329,2.107162595243103,0.55398755655654619,-0.31461448488154803,0.75240783386098653,-0.65943693418829785,-0.443773726796512,-1.0593167610315926,0.95107905757392974,1.7007154461236145,-0.29319802416224094,-1.3878618662148481,-0.18142928841755759,-0.65687929328929051,1.765868194776631,-0.31527392322176667,-0.95194788009012699,-0.265602965103579,-0.47997955473756776,0.3035933845983052,0.70695476146104252,0.38662668683085999,-0.67496389514151689,-0.17075871685468066,-0.20189288688147697,1.143666557704863,0.69295013764731284,-0.26717165612635418,0.98657285825288965,0.32800570827125852,-0.6697526119654148,-0.90876783007307471,0.15876257020564036,-0.41413338058819438,0.66278578293200452,-1.4668728545203851,0.18776472052612825,0.79472147038429697,-0.14292875198387478,0.21647854690822893,-0.40819799909844862,-1.2599322029069795,0.23148566954199704,-0.46841179662188204,-1.4261605675557461,-0.32519164598086131,-2.0529042501005819,-0.83290303192987192,0.79497301971509438,-0.49227239101738812,1.6800120198873754,1.7012163192751797,-1.4924890522040424,-1.16820473140044,2.3511817983153263,1.7874920545647519,-0.86123202528176179,0.68333735068550161,0.17419450549784482,-0.015065729743107987,1.1924059404854781,-1.7758298784485946,0.95346004151525576,-0.54276869254763804,1.0785147046566825,-0.85663915493429199,-0.042417266854767793,-1.1679348759234471,-1.7866859721564818,-0.24276248704706824,0.13633000155944008,0.54801015446342216,0.097465164676142593,0.95649952419582263,-1.0878398974456263,0.49199633941186544,-0.36268138805907174,0.31494231193679417,-0.49782409007528206,-0.82463162355771591,-1.8032747573755348,-0.91377499499464987,-0.8398215715869215,0.32034539813397062,-0.23892669435808256,-1.4448871637010363,-0.83638248261523185,-1.5032644000890767,-0.55498923232456487,0.042168001121535278,0.45915023661897497,0.69440382771974118,-0.090283895064807121,-0.52800665017217085,1.6292773081750525,-0.39500826311977155,0.96146989052205512,-0.96283912420695783,1.6240739214546003,0.44177325535833123,0.7262516663513916,0.13398299668692476,-0.88520596313054867,-0.54357309089466543,-0.72661006825595975,0.47553204559232798,1.1692308113144403,1.1246371592509414,-1.1264098661424973,0.48710383201139379,0.82167460903133249,-0.50666825637842172,2.1062027519099855,-0.25413758771595996,-0.04832303381998683,0.23893782181770859,-1.6855598170872228,0.20450267312178319,-0.41153709636684532,0.38973116994767848,-2.4163122047752172,-0.50837982397277759,-1.590893246865563,-1.3590718422476817,-1.757480455882632,-0.78965689062223832,-0.17850548211432263,0.57887410628253777,-0.67110497293931448,-0.17968926711637995,0.44411512678946774,1.5929730656655845,-0.6545130279174296,-0.90428644885547926,-0.83039550394384609,-0.46953206840366518,-0.38410781781265468,2.0993327139985571,-0.24054352318108871,-2.2947257376947947,-1.4491526016055911,-0.66111201170631262,-0.23572897413874574,0.17623680236712091,-0.006623181456058864,0.32487407017776365,-0.71841014555049931,-0.068255508859557418,0.30953779214869581,1.7194681235145772,0.12461520485219307,-0.24859362404055182,-0.67914363811325507,1.1540973832052828,2.1070516747683605,0.71730304111122134,-1.2629998501125601,-1.0203241986417591,1.0774141767725394,-0.68320412044500134,1.2687332158888682,-1.041754339426217,0.13996177730099549,-1.9144567887548025,-1.3636430448962464,-0.40571857170838804,-1.2623202001931286,0.73414000127120327,-0.59464185420384807,2.2929313703838123,-1.295252208991404,0.093381309365371257,-0.56384293157915155,-0.29787863517032542,0.60105782244874006,-0.25191421913546347,0.36253209968188038,-0.60639554230277815,0.051730336448129056,-1.3344786279534231,-1.4481462963256577,1.4878283693221843,0.32076597541857249,1.0485344846005635,1.4423729925340676,0.33382590478228397,-0.38071851204666929,-0.58108004754047637,-0.0085132670419664665,2.2124353195893227,-0.44082375157533094,0.87782391391641978,0.28573089612180996,-1.0528792204579536,-0.35870403867051137,-1.5728494726085425,-1.6842036838454473,-0.11867267978376844,0.36975218742082394,-0.51472743904180096,-1.042457347756393,-0.091466506639703057,-2.286642764307524,-1.1454586336404313,-0.89873221190524066,-0.52454866931880606,0.76080930826642512,0.53747402799479627,-0.82886989670368549,0.23376431863247568,0.042783543795644877,-0.90166018356852262,-0.38101573339824413,-1.1902735675612881,-0.31482270389543437,-0.070666691667503626,-0.16209578481350642,0.78119513722272171,-2.6358343030527815,2.1111982406385454,-0.940068251268388,1.3142486129497948,-1.0085178375606463,-1.5543144088214444,-1.8408121985695904,0.095708172290918478,-1.5462637460147215,1.9371952805767931,-0.77699353552121586,0.043211226275331069,-0.7345537359237162,0.82499950872977712,0.56762788029639766,0.92395958104456011,-1.0913027415042158,-0.38239130691262369,-0.13477127042112413,-0.81178214125322756,0.13621979815182436,-1.2883367819291809,0.62314381163327082,1.1696114387201646,0.25452200987081819,0.17072372378384101,-1.7366438236901383,0.075730883214828904,-0.19865428096494231,-1.0204431764705866,-1.0730355703842971,-0.41820514132536729,0.45417406610487043,-0.71296666062278413,0.53894305267444453,-0.64278465770641546,2.4312659451565843,0.77511599117668772,1.6788744854903006,1.4277265553888658,-0.32821311426772426,1.6013385048566475,-1.234075021181767,-0.097920296853653332,-0.40898057469243471,1.3647016207981431,0.80637743193204203,-0.14423945533172627,-0.96538972867603012,0.9621811232155566,-0.11282776849030673,-0.91810974550544522,0.36962392264248323,2.0305382749619167,-0.37178533507954648,-0.67021944553257429,-0.89509361933120135,-1.1210782298800566,-1.4304429585847624,-0.1286818548892448,0.070208286857250418,-0.36727271041110743,1.7862942756311873,-0.70996700861855933,1.5320881060153138,0.20720426482362114,0.54617389980991149,-1.0083921708000625,-0.19728588682476778,-0.46208980182366494,0.085200660402145995,-0.27292785355417576,0.49866999686515651,-1.9879984231206989,-0.75591429730501514,1.4572886816694337,-0.25374330944817114,-0.49577999500849973,-1.1041764015359281,2.0141334074217756,-1.6426014748083568,-1.7106196056532028,0.71798517492235558,0.28057085200621917,-0.9346786413378958,-1.3180616799800819,-0.31911393842117475,0.78887364015716588,0.92113368606966473,0.83242779101530118,-0.40604159718563454
1.0464761070957049,-1.2441746551574768,1.2275464404479359,-2.5962216373396587,-0.73698798363613371,0.41131551616981243,-0.23502183547994759,0.6719859630606112,0.45147350759494892,2.2662984109963435,1.0509633925909743,-1.0852221050119026,-0.80244110485903131,-0.78867788899488334,-1.1941510248554761,-3.3046557977603115,-0.27723525034653485,0.46636816773041978,0.72000577995425841,-0.14166281982176374,-1.8027611765461449,-0.18469813391565876,-0.43839374417157784,0.82134865104946864,-0.91772368442035446,-0.18182924136989001,-0.57048856668476056,0.42334053792541287,-0.03852947007667596,-0.38586101331593148,-0.41677951603890967,0.38250779234293969,-0.54531290814590316,-1.6616149740075437,-0.38605190094853431,0.50766037542023201,0.12688232498541088,-0.41846735941289365,-2.115868446247454,0.39762889477441066,-0.44156356577615363,-0.63870398869250022,0.7510734650273575,0.16216322840919969,0.047432211216387209,0.35181700855439085,0.91867355963874087,-1.2262288516326831,-0.71861029931484799,-0.99032132577176257,-0.13377015777517515,-1.0430286839472909,-1.123899289243282,-0.1764583800378178,1.4410098949064494,-1.1908337499154338,-2.3544830046749081,-0.25029972329412298,-0.73610910231183513,-0.59872596231343123,-0.76666277701439312,-1.0768837385047065,0.045471664913421403,0.24340294789092745,-0.91830466407820643,1.1680532347822175,-1.257542392024773,0.56814600598607001,-1.5578593322198568,-0.66918772271800708,1.6615741038220211,-1.4630682679370579,0.54089352904609311,-0.1464637280319315,-1.9753553998721556,-0.69130131810504791,1.2835531738647592,0.01617868809094504,-2.0273098659598423,-0.018001476226391522,-0.06785608238387407,1.8941118872847451,-2.3411810220869462,-0.82759908228604806,-0.44473001991567412,0.64575100609402192,-0.61143059051384718,-0.062260452516722749,-0.75661140470805632,-1.4511474069316779,1.5394453111070854,-0.45623850728602106,0.61851757589223011,-0.61975697601162616,0.23872765879600957,0.62742701848773819,0.89506163896322755,1.1856745787333014,0.24609759079974808,-0.017386545331801461,0.67697529215952756,-2.8327627532460133,0.44147808350091816,-1.1160523551930457,0.26206027312946295,0.46797967483590752,0.24016255006194712,-0.10711070769751925,0.65632535774932699,0.32191556558515838,-0.91127137470380926,-2.3262579897190578,0.60336431161904103,-1.1460365808887398,1.1654691639498735,-1.2370041205357551,-0.92071648533447181,1.7731209234867269,-1.4331149981679037,0.17611917191804732,-0.16564170582100221,2.2793658877353948,0.038463052775060277,0.32955592377778709,-0.35510533089988766,0.25452145350111122,0.76211272835827226,0.081319167109959192,0.49152456038124132,0.25704641774160419,-0.62855240214617702,0.72965264919536499,0.80787250356328566,0.3408956762227589,-1.1892709990030232,0.29874842274509156,0.52627872911516393,0.13165789675224385,0.94514875860005088,0.067138310641109714,0.13689048477017135,-1.2475405119016474,-0.76617662929068131,0.18373986021924468,0.061829320006930595,0.78043221715925992,-0.47923482570105103,-0.59421889077482304,1.034664565820266,1.5831223988072811,-1.4783415896236787,-0.34796928678301375,-1.8064762865521733,1.1952128922618603,-0.13128768362865881,0.95993855063178968,-0.60973548999456362,-1.1340338844053917,1.2638114290128926,0.54953131991641646,1.297690245994146,1.2178587121507343,0.42303981077943903,1.6372303741851308,-0.86225046566345276,0.76773152622501395,-1.9718521813962882,-1.1968591213240896,-0.11894333060295126,0.48387666025241449,-0.83754831292709786,1.0168562307919482,-0.89145544876905292,0.54015707092428311,-0.10513627159319444,-1.4170106376716989,-2.8759839708447252,0.87067551261254394,0.64222990633715316,0.68546837618404077,-0.091634906151714712,-0.34684609781421932,-1.3834427685185573,0.64030254862925029,0.30160614860332952,1.0139493901921262,0.65231511755086136,-0.93646773474568978,1.2375348214994299,0.91407418854892608,-0.061793444516029285,0.54724271671943003,-0.52747312558682236,-0.10094216063230831,0.49533412437740398,0.056224139212042015,0.43502956429826506,2.9073140745812283,-1.7050233984410441,-0.74476568562449263,-0.64261334085030497,-0.79530225679598443,0.21888512188699688,-0.65283905958574406,-0.24297940618588867,-0.61152327303827758,1.1252000641948414,-0.66723741660531455,-0.65604570411885677,-1.2934380782438326,-0.11442675239193392,0.28369682525687384,0.11372058247948037,-1.1036473625239964,-0.84991417873264918,0.77436643161372642,-0.74169105050658379,-0.11509871654392856,-0.80542127768405491,-0.23642585172952787,-0.95863823745358223,-0.66148523660576619,-0.20516360308176335,-0.5805189525788309,0.87687485104198459,-0.75799451162514175,0.28722901520010002,-0.44372396617536131,0.06832278305211692,-0.30360644929501429,-1.0060849591305099,0.73210426636879655,-0.083182690996718045,-0.22748142857265299,-0.66509591293464188,0.86704688188665691,-1.4955834913483574,1.1883406027785592,0.071156954821048113,0.53587340787334825,2.2752372097197258,1.2202280835050707,-0.2918277034207778,0.65614715307298976,0.025896062831165613,-0.79240823804135974,-0.78905291188009963,-0.50089559141292861,0.13564556943021105,0.041299403920711256,-0.93028540370687574,-0.27002226404708446,-0.28705061088574263,1.096167187515422,0.77215141498875561,0.3072796309064324,-2.1007688449240534,-0.33597661895958708,-1.7104286888273814,0.37926934365054715,0.71434186783431075,-0.3606049007737695,-0.32331593827001492,-1.7861196589032045,-0.099972517725999771,1.0201115009209989,1.4335891729166295,-1.8548545141165094,1.4393563457373622,0.41642808153297933,0.2937677561454366,0.18076595289975295,2.1616483519551828,0.27639818248290438,0.17177265720576554,-0.052462887641209967,0.19316518057259668,2.1977523737875204,-0.093399376660563041,0.44813810445072982,-2.1482361583662519,-0.45445584870020828,-0.65806222772717915,0.23602719769826458,-0.10114631326620889,0.1230475525183776,0.06514248310337685,0.80705670927080875,0.0065658511523978384,-0.6515536930125172,0.73248854847010902,0.9241660996204587,0.78988108682814118,-0.8857106381895794,-1.6284916848566298,-0.5200905358797504,0.40464705707234089,-1.2700641271110624,0.22783194518367841,1.8246456981136838,-0.79346909387744924,-1.3130332593058753,-2.3073279628824177,-0.18860057357437157,0.95255022114274057,-1.6677966794908219,0.58855669353034623,-0.41603378041257016,-0.045496570547860313,0.35629181635681362,0.97380676440408565,0.022336809440541394,-0.68713715933259811,0.28295037621232505,0.019984861980589186,0.82911169873317037,-0.023382937198448986,2.451284164556546,-0.066614985451809772,0.65615238323573277,1.1791366024627321,-0.53647467287442396,-0.37144363063405955,0.95611703234425693,0.79276003197850986,0.28029444239683293,-0.43653004339841456,-0.50840873045457213,-1.1417409222131354,-0.12577870437644464,1.0747513813266925,0.82127820488138392,-1.0464838858425543,-0.60993940535298874,-0.61780463510998074,1.1434922471420794,1.2640583086737462,-0.53227685746897657,1.3291963283802213,1.2045911892443089,0.65474219906685704,1.4979980595656437,0.81446176981876106,1.0091558432050955,-0.5428664282654484,0.13490266159239517,-0.49493058615015822,0.35418720038314544,0.76092527376203978,-1.1902250395341005,-1.1226169535304646,0.54764779278015785,-1.2682155044422103,-0.94808552145463831,-0.42027767328955101,0.73572084646522884,-1.7380338638868198,1.0065810863611857,-1.9932332682278568,1.4836645890256366,1.1952479498212538,-0.56312920151513901,0.22003848296938042,0.045369728641086265,-0.047280902616156466,1.2046750753545443,-0.35413762924427933,-1.0714266230246841,-0.055275795252065489,0.45803449348181874,0.72517714000579703,-0.62174008696515415,0.16255435875098753,-0.42490725529600082,0.23047123018017776,1.3467258310072925,-0.10891018642756585,-1.5504859364398851,-0.10493571433261061,-0.19934801469810728,-0.73044960100010248,-1.4676685120105801,-1.5655723936475376,-0.45465742080479726,0.37613007328066922,-0.94402341598022832,0.47623798367393494,-0.15949243307648847,1.6594404861359142,-0.61686146407326015,0.57107867937200174,-0.62959857930913743,1.6632124495020739,0.67501576762242155,-0.23169528373354428,0.26650738905452426,-0.98491149622555596,1.2623439664854508,-0.89734315638314388,0.36734635576376579,-0.43767408809693248,-0.58433530874951356,1.8958645582116298,-0.54667002135230791,0.20860117923877936,1.0528613606665453,-0.71806263864792841,-0.51873518029712773,-0.22408235731552759,0.18457687803039324,-1.6651739031677297,0.99955773419102112,-0.9590417800748704,0.046651072524298669,-0.49235757250503404,-0.22639390951058155,-0.8592050415801219,0.46675032645049064,-0.95794470986065061,-0.61926854022448907,-1.7278308042627497,-1.0305496377912697,0.89854867995096765,-0.65627094858095258,2.1467788335498277,-1.8884025591454181,1.0364680514719553,-0.76380866477651632,0.93862458201140353,-0.26189636880650918,-1.3162026102738282,-1.8168908682612435,-0.76671370345198042,-0.15398327222797034,0.63527839324535973,-0.99936812962805766,0.58400319391667244,0.49342196245383985,0.24022312717422792,0.65698551681104123,-1.0750713359638384,0.027517715151059004,0.3151740523455559,0.79966578684449585,-0.8477804463593962,-3.0086564738367239,-1.0255503708979905,-0.22761624910963049,-0.63654900888888399,-0.42708403779274318,0.17698297094026647,-0.50247784911602433,-0.058512891220942602,1.4939185584054244,1.4392086119776051,0.93612142615813798,-0.47758784389144815,-0.84332420955709353,-0.98241032080865542,-1.509805984445256,-0.97888286505238653,-1.2537187226217235,-0.85414325216743658,-0.56255991089486124,-0.094505019457339537,0.26592229252731447,0.059135986710863418,1.156051861470522,-0.61340788477996733,-0.76364969780321945,0.59878129973596239,-0.19223751650164866,-2.3970825274182328,-0.20834751612691105,2.0089077277040026,0.14568843359487882,0.28080156046869476,0.1088621846090547,1.1786518777035879,0.4349932628862358,-0.055276686973051173,0.64221045964763979,-0.5699022183150958,0.15464516248673219,1.8311024659104345,-0.19873378862477353,1.1552216934243191,-0.021471732654675852,-0.50627555080239062,0.5249126755151482,0.56562715588903922,1.4135054698486831,1.1789694308026011,-2.1619396447847019,0.21607205750309805,0.83424783539381808,0.65332286249451477,-0.58353736571900927,-0.86161651161943342,-1.5440704277076625
1.507038835531934,-1.0100744928177465,-1.9804443673714303,-0.88069667680498387,0.45294628152808708,-0.57032680068594621,-0.19734201320198527,-0.010003975623328804,-1.0876647540275826,-0.41844181344830012,-1.3678221855402544,-0.84472388746977811,2.0176372152232642,1.3044682244027916,0.64471674723801775,-0.63798039733795775,-1.0119174163158,-0.42010957773962149,-2.576904748367105,-0.036470719938076712,-0.52527251959688304,-0.64161580353114112,-1.5762001897976319,0.38504347430939861,0.37333022539625721,0.83866233692569514,1.0312020868725293,-0.3253117058811783,1.6787796279330862,0.27573565222569646,0.54499038128402122,0.57845004299952385,-0.54845645919815089,0.26862076063371182,0.1260650794307703,-0.054673674944648719,0.31919059347643325,-1.9162029611143714,1.1924440606743232,0.6155870523804865,1.0600777963621166,0.20368629578721803,-0.013081925678667445,1.0672539987778769,-1.1925477356413858,-1.1426889634453681,-0.032891637669616128,0.16335125709243944,0.44111195273076664,1.3239391416508142,1.0617542692365582,0.31019003651155724,-0.24173129707729213,0.098873863629368328,-0.015197401461500951,-0.7385465398879405,0.33679308994724244,-0.85555559348282173,-0.33007729452018736,0.1662066602470868,0.97656623604045212,1.2025594004404212,0.48800698629253192,0.18103141041192056,0.31923448979932728,0.36586292814215127,0.34536712557702393,0.24632137744101085,0.69193847932955088,0.089856236005970924,1.1850226013151348,0.18997768239010948,0.064547510443408271,0.23662771082904396,-0.65962615185740581,-2.1914756795931747,1.9112523298589879,1.2824250534635027,0.21332001956516042,0.34187597290294569,-0.24100615477632867,-1.2237879652333856,-0.6929541821826648,-1.7330451818502748,0.3280013970754137,0.81546852347630949,-0.68789290208032883,0.74844019051410204,-0.77095586244670222,-1.0877278773202745,0.74672446150511651,0.2730757699272352,0.19993671540112523,0.68030039050613744,0.66659524713303908,0.93680001563044291,-0.086567154059218915,-0.47359440614223325,-1.0632582681049318,-0.92889987395272899,1.886748979572541,-0.52035860457232741,-1.5367968408365329,-1.2990424383584718,0.25673093901084498,0.49979210694213971,-2.4838767325427025,-0.52771729117810984,-2.1209897908939634,-0.05794974754650753,0.29716084734844017,1.4546571587444519,-1.7998559436096306,-0.63868110631343722,0.19030954082685753,-2.0713808509313529,-1.2014030757732164,-0.55725260543949418,0.8594364505980927,-0.28095779256444137,0.023957637400392109,0.2671963177595455,-0.48467144833180492,-0.70409127179299802,0.69157318832889858,-1.1884473257970676,-1.0491278968476099,0.23920120181419638,2.2057328900765336,-1.0346165198929189,0.92488152352931152,0.44919990877574423,-0.8542733501489731,0.3287930004651643,0.68729417264901183,0.77574494234965841,0.39075972767866551,-0.76197252861256604,-0.36908532475957179,1.3396353258047164,-0.30374424914437631,-0.319495477897349,-1.3455119067671932,0.59608669080712839,-0.89452729058692082,-0.56263130436317632,0.14938108452484924,0.28699949644619543,1.1303864842829883,-0.11300854607111666,-0.77996301156570857,0.27313234684401172,0.98928858526391505,1.3403335412203012,0.24768634565109246,0.5743187567954442,0.30204884293864959,-1.6455748159721968,0.5333986366772564,0.027123930391633716,0.52309258416323046,0.16815747403376785,0.35445286879444515,0.73488691843999165,1.2382964970144974,1.355930356152214,-1.5673855205488969,0.13197737638456006,-0.47371185542831834,-0.030422725903956706,0.56738381326031073,0.34306987324859833,-0.95106901539372979,-0.63261035610199701,-0.16930044036053996,0.06022830039516288,-0.39872451160710104,-0.76887033726317666,2.0985779548675416,-0.55415708382421403,-0.79826432347266929,-0.69309712457225126,0.42405964033119714,-0.33395555072513372,1.7931716974060166,0.40037708610948108,-0.74129736030561455,1.6771349015456023,0.78090342395730805,0.74260183175302996,-0.41466755231098029,-0.8767027455143992,-0.24727530585518184,0.48101038021299164,1.3630778195314419,0.40762571240440937,0.13818107194181989,0.1746510441216482,-0.50540449955822775,-0.48532294102342693,0.74097344583413283,1.3544102816079711,-0.084050044972030141,0.53173619289691287,-1.2477063610359125,0.92820644604753477,-1.6775065839354313,0.013575146150648257,-0.047440461189862559,-1.3309688352899305,0.1449030932035088,-0.28411986684297058,-0.21322921799918793,0.92770114004258319,-0.64795208693524109,0.13734981633582438,-1.1716233159783029,-1.7937233303036708,0.49790816156752915,-0.012184585376665702,-1.1768094257928063,-0.34504773924173027,-1.2698672945799794,0.33189211380132755,-0.35915820475793769,-0.1500394842671364,0.40898707042951349,1.2483633052343091,-0.041549372607911951,-0.88074375147434891,1.3358879809638722,0.87982756845730747,-0.73152761854326298,-0.62642786935491446,0.59342908576909836,-0.1643333973625121,0.21431459143161047,0.29839497142503735,-0.5177319965033591,0.15908522881886911,0.3098318991425939,1.4127575689057135,3.7577217726895435,1.9109781133638393,-1.2526652489663463,-1.3835314864102946,0.060600345128151163,0.60573643304716729,-0.77982775919082248,-1.5417293952128168,2.0481952847808533,1.6682966170346187,0.087364148043781689,-0.90803860983432672,-1.0602526731390403,1.116113395218584,-1.978411030601448,0.094030204293066494,-0.87001048176546025,1.5083271712617885,-2.2562122877840447,-0.39653068748851283,-0.77600105675465192,1.2806272732885267,-0.025556378874484524,-0.050878994524229525,0.40588129080669477,-0.73346296338937222,-0.21692878002123392,-1.7315967396602157,-0.24412280140778594,0.42086772730652111,2.3306074035765576,0.38744401188232835,0.70056508299224851,0.29028977683184426,-2.1240261211071605,-0.62845571039094805,1.2726328483199667,0.14958817019265666,0.77030943161258647,-0.94384132801111431,0.89039754205261301,1.5291168345562851,-0.43012465996122151,-1.2724253962852805,1.1205427511704675,-2.6000988230689521,-1.3109034488604172,-0.14462523719287473,0.090578942036874791,0.40277510107107573,0.1219935095865968,0.021872228618798069,-0.069060593859452915,-1.3387020937586624,0.62637601627900286,0.74855958708662451,-1.045837267557937,-0.30584100008918158,-1.4939096846804782,-1.0720803076904342,-0.98619493219387777,-0.45405918851623495,0.24557772661017579,-0.57747480627704562,-0.76510793962424006,-1.3005169625938553,0.45509759391038684,0.39545909609409347,1.4016602074176552,0.4817297262840407,-1.4683864418944899,-0.80249439673859424,0.22152514812843793,-0.58215326992661265,1.7765236656700625,0.48842726815467613,-0.40728253075426268,-1.0291281109136023,-0.35821768098738765,1.2870932141150928,0.40761549591691443,1.4909291041543447,-2.1101595289330994,-0.081657121071088884,-0.56229028983948193,-0.064223087436350038,1.283830698328656,1.0395294543335396,-0.14737783775329288,1.1550844232528639,-1.4449681321799834,1.2106258356508848,0.92723804625253825,-0.017547176786488278,-1.6191152792958823,-0.10708666338078161,0.72347984196090653,1.392103836966996,-1.0108018246679884,0.18299857626102797,-0.52270729575381825,0.023655745407106573,0.058530090697314484,2.2370053463981248,2.1811332040746496,1.0172258019903375,1.1828915040174399,1.3765603768446502,-1.1883739896510106,-1.3013046897050098,-0.47337461687010929,-0.84802312613058628,0.062546027189913311,-1.8682774770577188,-0.025965192219062627,0.74381983912680971,0.57075717550953653,-1.0271897208569605,-0.33336545654025707,-0.49020817758863622,1.9080876368908095,0.48125408152184124,0.71674494935874089,-1.5408697940897211,0.82098201962466322,-1.2250292636004541,-0.19917211290907499,-0.91221624681162483,-1.0356512078874203,-1.0963375215629596,0.47645427768201093,1.6556297282939649,0.023797350438329531,1.212135005908352,0.63970668872395609,2.1987517817595821,-1.0837903476364166,-1.1013219514938293,1.173674098171035,0.25000368030846082,0.98318956369626875,-0.59716310942233108,1.5585586860185086,-0.56817326245191213,0.66871291754470752,-1.7976985602800608,0.64718712795242106,0.20866057008518835,0.20397150988888341,-1.1681081426628022,1.5872888076660747,-1.754309153168172,1.0043907172406132,-1.3132760715839173,-0.66718854259540039,-1.7475051417052425,0.03535238693931398,0.27403921417741761,1.2168011094362212,-0.076140204642527257,-0.24596407628292447,0.50799522250692697,1.9796822778318957,1.2685021041917564,-0.51605782855670856,0.81952203144210789,1.6991782612010704,-0.55236105057798779,-0.61193753599280809,-1.5683496748636616,-1.1313456959053334,-0.3763584009000468,-0.81561750319171678,-1.2111071048813429,-0.84718116766862039,-0.47649830360734546,0.57935791693050664,-0.59248904143262893,1.0826213648581926,1.1589415732201491,0.019987263161136491,1.0472431095384505,0.18459150869689234,-0.1556779106191728,-0.047779803268120903,-0.44773104864711183,-0.0090753248627069762,0.38245527714636057,-0.85259554546641292,-0.38495550383544391,0.46865527024322723,-0.40121956050396079,0.05024951970481395,-0.43538447412347508,0.068846255245228555,0.76746355500178876,0.60522202973038497,1.8749079456762963,1.3270773493202088,-0.15367587729379686,-0.11124197903751422,-2.2544876932767739,-0.036613038742783967,0.12921083104406442,1.4414186612688367,-1.8863140255367692,0.10029465436283486,-0.37373893360088412,-0.4496470628697582,0.37126676608511877,-0.80354189833517808,-1.3520322560130595,-0.11951485048805906,1.4215456671056783,-0.65030955241261112,-0.90195407547679718,1.6991198958878428,-0.26967927133581782,0.55645607775550077,1.1330188217091905,-1.4304220636982805,-2.015679984084362,1.3229848699136701,0.71958852929413986,-0.71632540793184918,0.43221718784961055,1.0995344089715404,-1.1086815767152109,-0.23999209162861729,1.1456896874180267,-0.39361013588619209,0.24953921318766645,-0.94646858908767684,0.11955980680723574,1.069557852248638,1.6139546850970692,-0.32555672838985095,-0.76400618842033052,-0.45212226095492292,0.70902620952515716,-0.1865361520058583,0.43908252258810765,-0.2601397075920418,0.88538151345420235,-1.466649460252603,-1.5518175259187814,0.26219505147874539,2.0583439745293792,0.83695687552013964,-0.29840208600246226,0.00052214354385894321,-0.61358732679279226,-2.7750609107243265,1.5599438101345442,-0.03305846308740485,1.6413299249727316,1.3040438469175077,-1.0506058838505878
1.676800938192448,-0.00054112109523459439,1.159706968888143,0.19504918551272296,-0.54701338523877807,0.19506481428413477,2.1349376468130083,0.18493192540497833,-0.46200299206780798,-0.62658936337400784,-0.30857950301617099,-1.442198584697191,-0.52378674460642372,1.5443435866512361,0.60439637631821597,1.1549988648745695,1.0205166771737111,-0.66723078426060922,-0.23489526391846005,-1.170809758666439,0.37246276807551643,2.3635113096359426,-0.58185641371068642,0.53111192005350061,0.41859331348982576,-0.52973300927667366,-0.30503364401046829,-0.37774706610634246,0.050439371921774306,-0.53073138832775602,0.71945317727078595,1.7204611337809383,0.71680091265357138,-2.0418405245199889,-0.27059921807867438,1.2713529782138071,-1.265522756863805,1.118518656798261,0.41885039825356885,-0.96071638210016508,-0.18943695934116203,0.025019331669451424,-0.72730811199507273,0.93305195995654755,0.43131689465507861,0.53271323938212023,0.22400623995641503,-0.59978652996702131,-1.2524176750346778,1.1034894277555294,0.58781343422841748,-0.15991028870632873,-1.3804452005790731,1.8981627819814537,-2.3798626637806541,-0.14362168984050597,-0.70421411861835836,0.60109962708394793,-0.33617897653602546,0.23104608045960898,-0.70051647102334724,0.66221129862567951,1.1183146636631547,-0.12585992824937636,-2.3733866684224449,-0.41304513506430535,1.1217204022266261,-0.017361592160452785,0.53145467952685677,1.1638697459208038,-1.7027243792124729,-0.35224150494313577,-0.93591745562965045,-0.014454139926114513,1.0264933462593433,-0.32144582357020379,0.66153526299927778,1.2089531634304784,-0.21699168732107599,-0.33256218409591903,-0.13080215040942475,-1.5669564153849251,0.041630572729866706,1.3534130034269849,0.27015873196933787,-0.97232727422807808,0.061257751996231721,-0.911462262473687,-1.5939499992912161,1.4429425990979854,-0.80863725028549549,1.6451249332762083,-2.5994411020707058,-0.026790168919905794,0.061121054197786344,-1.0681289014113198,0.83341212919707619,-0.16084278959937207,-0.95756094857374841,-0.78664612444590409,0.3717352457379397,1.6228262370049409,-0.73728643569021202,-0.53097070449873607,-0.87643470541425028,-0.6725093033270948,1.0385093987797427,-0.80234754859180057,-0.22765900327038177,-2.2868276329956614,-0.51672450186959185,-0.35489941880999548,-0.21313084961275319,1.2319079949222569,-0.43792976937796418,0.60367960874278481,-1.2538774596535955,1.2239074519660402,0.054974935982446474,-0.061361321913921033,-0.46133154364363937,-1.3006077369859534,1.8847156048224456,0.0025544710979053778,0.20280789516541642,1.8915516268338566,0.3282219202342147,-1.3730290227936879,0.80839642918201948,-2.4210271287883089,-1.243059206264338,0.43257791664520462,-1.2147605777507189,0.83429903883662837,-0.89552980097983703,-2.8940691849501743,-0.62767178814107616,-0.1862433325667758,-0.83946396431375303,-0.19938468144637478,-0.54783175657942296,-0.59643421515106043,0.58675716072635298,0.68705171335220194,-0.54275236051481957,1.1486529211128877,1.2599380867410073,0.41496565578168648,-0.64136809462650834,0.45324891694308767,-1.4794732534703547,-0.0025165297730834119,-0.62924211814254705,-1.741929073884136,-0.47503367422712289,2.4565352325496495,0.70650801157571708,-0.80819152804189731,-0.94126979524291676,-0.95624057776172211,0.3215279864478493,1.8940709575613874,-0.37153350779231697,-0.28610354755492207,2.1613394728108384,-0.074664910179909505,-1.5428833354649869,0.18381352346639585,0.060246049778602415,-0.69154611077222794,-0.318611068941211,-0.012298311025388043,-1.4077827765221813,1.0678424701219085,1.1589148203633619,-0.43699016113895423,1.0090617642685811,-0.35271013166015192,-0.88497695457246728,-1.213011824519387,-2.2526267654550081,1.3257200143473329,0.15121285660637079,0.34786750604987476,-0.96199366725176483,0.63394691690898886,1.9952178937218676,-0.15879090991157085,0.66179229847095722,0.22442787066148451,0.81710504249558291,0.018973286540915072,0.23098847458580077,-0.37507521273039945,0.040814515612653021,0.24403763356693578,-1.5992248448312647,-0.32355480165902134,1.3330243656532592,1.9488738825387542,0.86548794241294746,0.24943481713159046,0.77916201848036248,0.99824356796159952,-2.2671892710744417,-1.8561843710331913,-1.2829479143624405,1.3185886002903364,0.52777293483599852,0.67454380792225688,-2.6062966651847037,0.38162366648625956,-0.95140317871911506,1.2000820322251242,0.26452845353442173,0.30092770676394265,-0.88847395553730657,-0.17087741976288454,-0.7175187994447213,-0.56618506273511282,-0.36209932091207975,2.1638960010327288,0.077363032192999559,1.5942547523085739,-1.5605213899579375,0.15884622600514198,1.6725500803539901,0.051509853376389317,0.4856476521413795,1.1913990157397121,-1.1302476555256724,2.1418392320377833,2.284975586752755,-0.42753805776871728,-0.99265947630454421,0.87791501335519273,-0.28956467338804459,-0.38090156053443197,0.40736499066922521,-0.3838199098820918,1.6423451993897813,-0.080937106295199859,0.77193128745535144,-2.3744079703925784,0.43086986095645602,1.0779688680505872,0.59769474918942023,-0.76117503720561375,0.29575779487015363,-0.87452858259323185,0.23203762088731925,0.82642816632832361,-1.2258643525006006,0.066905596546876028,0.34144694127332198,0.11438263812836699,-0.74618554989761343,0.047448504902742217,-2.5807929467450332,0.94546785510242948,-0.2889415725042751,-1.5150452583038641,-1.0555149689903895,-0.12362629215981558,0.50464301608390205,-2.2624670214376832,-0.56191615969327946,-0.9129837595674829,0.81029800697465981,-1.7778343641251833,-1.3350799284436545,1.1752732880791892,0.38161907911667142,0.037703826015128374,-0.76309103794799182,0.20286266674480036,-1.5484953550082716,0.37545442534186074,0.6257657573742953,-0.010217742756449391,-0.49244250167837889,-0.53669559344763618,0.23148891206910938,0.88099895464272715,-0.50895639956055172,0.81763683832805101,-1.0454612679462281,-0.3209457929314366,-0.44742067609637526,-0.22976421387899632,1.9416312758736767,0.81571362279336301,2.0082635544404375,0.41979159570423624,0.32947152522004852,0.19830509048171013,-1.3843532248691448,3.4257203741700084,0.59356482366920471,0.86176338114072104,1.9310008233585889,2.2037743263903713,1.0266815234436826,1.0389337047091749,0.85116990962603101,1.2354391971755065,0.23766962406442754,0.074090304837500218,0.4564036413814902,-0.77038738358834469,-0.33909434164483082,0.095804960550013279,0.12768960021982603,0.83546729528031283,0.92408296760262332,-3.114185015094062,-0.98523967280512426,-0.66181769605447527,0.11792830816148783,-0.28323736578273523,0.40145854798793534,-1.6375444713227614,-0.28925989335881852,0.021157564676706316,0.67590792431200608,1.3342114414635182,-2.1539221775884041,1.5022700900629407,0.010424892315428385,1.9185990610615029,0.3997109864622363,-1.8618043487525715,1.1078025966390246,-0.29959624235794124,-2.0460749508687592,-0.85995952412860999,-0.31116543579075073,0.86431834070275848,-0.64924037275656932,0.3835601953825058,-0.40262530704500893,-0.67152308290781637,-1.5883589946083543,-0.60449981896356841,-1.3437582170812621,-0.11379273924234484,-0.82868980532580183,-1.6978858333168945,0.44709624858532754,-1.3375369727034967,-0.51853675259316723,-0.040364234849812212,0.29140756212644658,-0.90812771892366451,0.72997496730867384,0.36843634433182276,1.3727546773517119,-1.2011841666768475,1.1648358158349874,0.56710341023822841,0.8624508087053453,-0.94152266804370965,1.8399928838457014,-0.12032014720828464,1.9778011759033454,0.85025489215149108,-0.46384898602845026,1.6493680378847746,-1.2720217650764163,-0.54299840601700033,1.5855730368069809,0.61067662756492291,0.41782685394207797,-1.290065935300498,-0.68430808745851979,0.066617844188031503,-0.2331862258145887,0.5722143409483561,-0.3389425590669855,-0.45456544698331092,0.23212874770518088,-0.28318916849322601,0.77079601856533364,-1.5182793661272618,-1.2859343488748218,1.1948964347746671,-0.48491387852207379,-0.27774695704394736,-0.085034609929680621,0.064052439626109833,-1.5917749321598254,-0.68276324549970924,1.5177855451539641,-0.1642097709416053,0.0073930081755921662,-0.017298610932006932,-1.0502103984810793,-1.2312075664173392,1.1635588800715242,0.21044695668153757,0.29303290109750663,1.5424951602413428,0.71922279918436249,-0.12872808876706157,-1.5322929442908209,-0.8473465458549686,-1.8333934797672404,0.029124512027735427,-1.4400159326977993,0.049104328104163979,0.10469392715194326,-0.1802480283951734,0.69235630504390455,-0.03108199128897516,-0.8517951488586385,-0.83134442937530539,0.70985261276541689,0.075650348642050086,1.4201480211329955,0.63087004574747629,1.3177791082726502,-0.68303413619894993,-0.52201805285394409,-0.19741220958226754,0.22206801912123317,-1.29149460858711,0.35353219290627913,-1.4928631049749816,-0.093096614325962251,0.67035208236823407,-1.0041752671769621,0.30375254524643308,-0.073528726574815628,0.38841675697775369,1.7011610625894791,0.13007792299336901,-1.9766114723646966,-1.73799625870244,1.175480707862913,-0.90312755946115786,-1.2161956707654089,0.44965192873127541,2.6255160011628349,-1.3413503290216608,0.98879973777902519,-1.2336255343599385,0.73105766397254557,-0.89335867773049815,-0.53889557949773814,-0.57948171541851357,0.13368290823343207,-0.39397150002158843,-0.82405886438908771,-0.16815656370128432,0.36881990890160959,0.11319614526029169,-1.3044100734525885,0.63252289332124156,0.35903054200195966,-1.4512107210098699,-0.25001348683477626,-1.445884289620081,-1.524091685402077,-1.0976805031472789,-0.48256208923734295,-0.47641037498073191,-0.54513112975225064,-0.03641286242311282,0.91316418642057418,1.2043799431102187,0.76458387936003613,0.4890562059077081,-1.0355220619257701,-0.23893456740176788,-0.22214607482079432,0.76323431007301901,1.5929945352846282,0.62684784397214477,1.2821543975683427,-0.4678328545870501,1.5529100817812485,-0.28015794907684699,1.1125849400770944,-0.48811142723514273,-0.3573186141941157,-1.7554294775400181,0.21031449172464578,-0.28300040410714705,0.21381696084712443,-0.12497438621854283,1.4980245098089922,0.27704984116340015,0.4987742187856502,2.4654675278503078,-0.40942932323185754,0.30663232635260762,0.36244159163510653,-1.9103533532580259,-1.8516834546770238,-0.68325942643165705
