1.5684647488803025,-0.74652840607635595,0.38962607220214579,0.75890273944943132,0.56241714033203027,-0.19259785717317401,-1.90792335805705,0.053380746257099168,-0.91956093688770801,-0.99370692367458724,0.10093806676442565,-0.97176389094771309,1.3959755616281504,1.0687306541400863,-0.19129520336878852,-1.6558793939962153,0.37668981436300625,0.44289551070847344,0.31570097070818282,0.0126094769814779,-0.64952916296342555,-0.68651506676100071,1.0134018417366086,0.3473242707266081,0.68380375998981791,-1.4566445545357678,0.0028555565008401146,0.95051643691394627,0.30462470132125041,-0.065222732467334843,0.51328395583450803,-0.59567048650411236,0.53552586017621973,-1.381513070066507,-0.84177336467395725,0.29571264871506286,-0.22736598734180441,0.21865974147968403,0.11045746923420391,-1.5676174700610519,-0.35004872137186455,-0.059890874577171592,-0.30807926557524656,-0.85543205947605172,-1.3443346817960191,0.51921248895876815,1.9404679568018603,-1.4456679456722261,0.06404431279255475,0.31301855180740923,-1.4427023858833699,-2.2119725155127417,0.010301703046083344,1.261073873198969,-0.32458647178607675,1.6681333870317114,1.6764395482237806,-1.6863975321237534,1.6909147372382436,-0.10797947704346407,-1.0382922907061214,-1.4799496265671599,-0.076569339388450341,-1.2589912221178741,1.3943214284466312,-0.91287054323367889,-1.1050036846748541,-0.53411014268968815,-0.86999804096091005,0.092139516202201566,-0.17937923364438857,2.2398645193449997,-0.11034646748396958,-0.45258300844492244,-0.11941479930874083,-0.89564144284981184,0.52506909596321549,0.30634152003382592,-0.26225064334460663,0.14465077618662212,-0.33309486516520403,0.060213193480141945,0.26233464073379037,0.37071086563412481,-0.0078348147764635695,1.2114359761058884,1.4851518867141689,0.52247521727406576,1.9428473998130424,1.5054854311866914,0.62754536850530818,0.86721629123648181,0.46503991573939818,0.40843608305811618,-0.59198025499711771,0.067124849700929273,0.18297161502520964,1.2550424307045043,1.041497425567542,-0.82436668967959825,-0.75060248765098703,2.6568349676291474,-0.06267858178520197,-0.2659543473899369,-1.1506930622346563,0.027632938603506806,1.1528166231953632,0.91002697431370816,-0.31132210279461031,-0.44334907932288403,2.6469844012083663,-0.81954781886354855,-0.58109814229423284,-0.40161923150731804,-0.94953791753232875,-0.0070733176103336577,-0.37231387631539881,-0.14134026882229977,-0.63180179477553955,0.21890778988928689,0.63070488554733983,0.81105226631365113,-0.12603443240326501,1.2569689806705737,-1.2034418521744918,-0.46081920921258013,0.78429183035242755,-0.29536606883732136,-0.63715712876472996,-0.37070031879170967,1.4789245628593186,-0.28383223455384371,-0.72117060351696316,0.49853254116379725,1.5166642267196206,-0.27571215041167862,0.033422257280380896,0.4072905090065802,0.60203586408681431,0.17840218950075806,-0.84278261208525707,-0.46256397913012148,1.037910878461187,-1.1570826874184015,0.16152247332126288,0.80400311550015502,-1.0484988927638348,-1.2603446478051425,-0.031371657660995846,1.4376722189067004,0.18253480450380963,-1.4520003803563954,0.69980626546142333,2.1820232186378057,-0.49694669514462592,0.65613772405265813,0.080530716815169684,-0.24095114010616728,-1.3557982300541895,0.9221621930224182,0.40528780970189832,0.38331981995986275,0.26876612676661543,-1.4854672176100121,-2.2180793936760104,1.9796765620943233,0.93585759359409748,0.69620160887620774,1.9923898305078405,-0.21227247140836195,1.0762765438531601,-0.064333491924701641,-0.24998573075730879,-0.4061371240553972,-1.041597513675065,0.64649295220049208,-0.51847871359845232,0.59034190955748156,-0.20999501904971543,0.15278633076506457,0.27663440436221692,-1.1715582362582926,1.9238887914546772,-0.0033227748374747416,0.22911842738470406,-1.9129490079804907,1.3844120339394017,1.096602623135104,-0.27838948026504839,0.31359780572201351,-0.77928445938279889,0.41199678091554959,1.953317089311484,0.68675013484286151,1.5240926781103366,-0.32722909925703686,-0.2427522217891237,-0.15450850016013268,0.94980528728370472,0.084727720587378763,0.83181488020552696,-0.84339797021301943,-0.22755791955189958,-0.27604357079171982,0.82981352282931276,0.18232555212985757,1.1298782087833552,0.20472684715840719,0.17313521115692762,0.67582139153513932,1.480875372309169,-0.81637177289330032,-1.9583866231474054,0.7538660162007752,-1.5071926187179472,-0.060604240440704782,0.81476156013801881,0.61121707236106104,-0.59736663201306295,-0.046630168372100295,-1.5013197616559839,-0.8375600858570964,-0.99337517287938382,0.41637607460020626,0.88019060585270414,0.11266697209431827,0.46071792160137315,-1.3042882199793917,0.22255988711595714,-1.0939939075438174,0.023617828535433691,-0.55160115376430241,-0.10450383631453808,0.022814524583672287,1.1597399412040685,-1.6160899735576106,0.36494088665126462,0.38271019850511923,1.6155073944541605,0.22448149962858632,-0.32425981233260537,-0.34439529181320266,-0.83980831947204371,-1.9097243968954869,1.2589521322080999,1.2530509204814668,-0.6370267550212797,0.84615837383444648,-0.024207722483461223,0.83683792993657169,-0.04424358044785294,0.68901408939238717,0.50830894062078158,-1.4373163386466548,0.19668269662555651,1.4831073201202538,0.98737844700464983,-1.2930509274059023,1.5760695581360586,1.0378844190566625,0.21807041145986122,2.342369298888213,0.026827458684400698,-0.17039550204590567,-0.88883466948755419,0.24168544967416494,-0.29172701615199087,0.59784061140147471,1.1172119391837885,1.4055853779602188,0.27461058238050179,-0.53580289183432339,-0.69409285721667913,-2.0179685044565261,-2.0835324250129901,-0.95249405933025,0.68014569135084146,1.7384204631805475,1.6524064700285632,0.80359308669540963,0.61948422014126892,-0.29243437758469004,-1.5273704447131353,-0.032053973726644015,0.90756316973276419,0.22571602289244863,0.20793714319995804,-1.6211479804786257,0.33538556393807095,0.22853543998796483,-0.7750626976643471,-0.33588012227682124,1.2509568832871616,-0.47788655767140287,0.34474246087946764,-0.037454704878006131,2.3875309130077298,-2.9312158120165681,-0.40022794221031099,1.7116691734823104,0.067302459993826114,2.073323427601065,-1.089137097686987,1.3572335069802799,0.37676328332661418,-1.3678408030449083,-1.4528640526087062,1.413098321899626,1.61347686559221,0.90650877221454218,1.2485952749499813,-0.18191816647095085,-0.27061360703445142,1.0832801739630011,0.34842816684068489,-2.1332984060451539,-0.091892644026735762,0.068034043042907083,0.14274794646243411,0.024542980183023276,0.18365448460709685,-0.023830309691285467,0.37751729948622803,0.87205504881918483,0.409439130520518,-0.24027709477973094,-0.36962624585451337,-0.62273963887167061,-0.4134881646155748,1.7927257824805682,0.06291005586088147,-0.53814272851439637,-0.66987168179376233,0.78759303868360042,-0.44294121986578772,-0.86577652315863185,-0.58108639414648056,-1.296294440702717,1.6431049762505683,1.4906016362898371,0.16658281741636977,1.1046690229202536,0.072682441512188209,0.86665458008227092,-0.89497831662470018,0.85886826194474075,-0.17837889472180032,-1.2048184428348232,1.2499421867604985,0.83943242814202745,1.8602225222345017,0.59134167775632207,1.3416202338221503,-0.52138210080254976,-0.64595829151450923,1.4459644518876265,-0.42682676818126519,-1.3568248175058444,1.0907659392688043,-0.15059737621186503,0.73203211284068059,0.90971237103396962,-0.70608880385634176,-0.01213447963388147,-1.190935113126955,-2.0848518083644203,-1.5361089130431138,0.91128352338511787,-0.54465141570295206,-1.2025335503470123,0.28227206409875977,-1.8687817684784027,0.26593230019238673,-0.10778702176575812,2.390813363760341,2.2986832681979901,0.64508430985269716,1.5284595296195587,0.59375496957980478,0.24363532559581416,-0.095638411208398569,-2.1036973216725019,-0.1006753120260673,0.76879656404267849,-0.63731972107403567,0.18298961310516235,-1.275162375010914,-1.514588031205367,0.83205513911127582,-0.4685363297255094,1.5847447891996622,-0.45194787970738082,0.5056002465189644,0.31962450702267287,1.3622698019204198,1.993848315390663,0.82166166623959269,0.1141148701222698,0.92722815698835015,-0.25743166923098854,-0.30497244270083501,0.96403360291675955,0.43068760491217356,-0.89710905526099027,1.4606020725286735,-0.73504952068768603,1.0175587657039731,-2.0459368789754038,-0.26874663125186643,1.3922092225270848,-0.90837742297049295,1.6011534648731183,0.78114589291088488,0.14596003449813066,1.6441376296273362,1.9718639171808712,-0.66845883497372793,-1.1421666727414406,-1.5007017614493166,-0.35005392881366876,0.65081954497076178,-0.083085688636522104,-0.070718373505352247,-0.52469860600596252,0.31564994845905658,0.80310522725366806,-0.62110233881668753,-0.8826190515823169,-0.028060398625656274,-0.86390141398335962,-0.25495536335602825,-1.5232429797031879,-0.50178102988656303,0.84315874280255365,0.30431260720411907,0.21835075859200315,-0.59875048128189889,-0.33772230967759459,-0.62698496425166095,-0.64131657994209113,1.6294129419210028,0.26386121942532448,-1.9564160520406633,-0.88898448585646594,1.6328345812885943,1.1565427572411044,1.8574830332429437,-0.28207383117084545,-0.21676487742756514,-1.2130917489672282,0.76604270121568618,-0.45838854029969617,0.60386608262244512,-1.9913740236842878,0.81058425616642282,0.58644001160363091,1.1619670771304915,0.42343506839949013,-1.5409077358522754,-0.26887809565726251,-1.0698033813913197,0.67845908389707144,-1.1839471752422881,-2.0803089657927005,-0.0091491687340284327,-2.2620468560328888,-0.061482059672759722,-0.28342973258383808,0.39552864263329113,0.0097087104151567447,0.35280354514318685,-1.9484315941948214,0.18679564914145841,-0.53121214162817409,-0.89017591953062858,0.0067298251250752037,0.41309757292745092,0.54809377429898354,0.52700278995417305,-0.4341045346743449,-1.4010935632873143,-0.77735181372656115,-0.091921524588336814,-2.1529513915314848,1.2503492292803646,-1.5593442154152464,1.1526482501580875,-0.25784358939165453,1.4661611913436914,-0.51058086631340138,0.18093429150975635,-0.3113832765324227,-1.2846607110059645,2.6809477975781593,-1.7217702792533756,0.077689824137123178,0.069549467549539778,0.65252032726172027,1.5576498836905406,1.2417892614739512
-0.14010917434101222,0.8541949822423025,0.59729063725750675,0.7688132694641463,-0.89534052558969468,-0.20411911832890395,-0.92363989180760087,0.74326665761587418,0.021478587940462882,0.86870906885798516,-0.50414639540661854,0.30594477203623766,0.14212555566681825,-0.60880678046574854,-1.170326157818907,1.0529725046482832,-0.90063993425120703,0.26414670310837379,-0.063903061249468401,-2.0000707171209116,0.64077184599680626,-1.3417552312380112,0.064973648913005486,0.28794133552554568,1.2273851363207087,0.14526864480726079,0.4248328736964081,1.4297604172969447,-1.8381654291763405,-0.40629658066308599,-1.3332659046014481,2.0628941776780851,0.68744414594802161,0.36351584214330129,-0.22838850692653206,-1.6702735087680061,0.64503191403677451,-0.55792852721978992,0.83649926813466635,0.87685142015766893,-1.9213122065974759,0.86347888256418637,-0.57951220507933399,0.57067162982231834,0.024210760729052469,-0.35911520503522304,-1.0444707584920025,0.47154620100530936,-0.23825057117707954,-0.21525972888755049,1.5996077211356252,-0.94898053413942962,0.8984729749267375,-0.11696230550777001,-2.1551032275324729,0.36663641137086023,1.0562594813955575,-0.10490192513711964,-0.31707802761447462,0.13154367679906814,1.5944729715605364,-0.1618798970990227,-0.86411035979702966,0.15806204307778396,0.0017903666122060652,1.2428791692298091,1.5592099725094066,0.3829530698263886,1.9080862474787619,-0.56859575047073685,-0.19169956506073016,0.54572822701550405,1.1268159989202782,1.6534301927927886,-2.0064169717357196,0.62841697089958537,0.095090202316414546,0.35963254286874363,-0.67567030609634304,0.65752148906682062,0.42725254834274068,-0.25878017238269074,-0.80708022610189678,-0.75025128570888222,0.69852382531427393,-0.65539538069609826,0.51885884116194736,-1.5037658688502258,-0.042332873709936623,0.031197630277614807,0.52626914304821659,0.81712667718838849,0.36514758877407794,0.60213552971931461,0.38843750568415358,-0.5297597731415058,-0.086241772347735016,0.57270471315037996,0.42811097657822478,-1.0104939625691172,-0.99867484032042997,0.086301548376320258,-0.46127106168242815,-0.42284319155802785,0.28141328106577795,-0.85757986864347313,0.51780245730573937,0.10008489555676214,0.51734959284159299,-0.56785604415406032,0.55557430241849592,-1.0851687721801568,1.4549377224611877,0.53920814137708684,-0.3314246148019237,-2.6215978664521513,-0.52399056673339806,1.1608535923924601,0.70475440053530292,-0.94941506550873422,-1.8310191157585842,-1.0366257747412555,-1.2217419267354515,0.29437649428301982,0.33399762060225668,0.75718647984622145,-0.32690916104057088,-1.1877048779974955,-1.478051123690066,-0.075916343091640998,-0.56297825389020539,-0.88780690334211876,-0.22550225757180833,-1.3861528499372253,-0.5852438368282824,0.70897949280945438,-1.2240927653778408,1.0060848261389848,0.32767195698236562,-0.8998624963142271,2.4579903378280914,-0.60581722655908588,-1.417839649312828,-1.4278174804218349,-1.3514530679991712,-0.055863560168418036,-0.17640634762648469,0.038015575815241301,0.58679298339970876,0.6719285613261281,-1.3994183986600237,1.0163497377194106,0.57050688995294463,1.2179785797914175,0.88803445330161113,1.1526783339360065,-1.0285928913826767,1.3645127357457087,-0.48626623086066617,-0.057601518157673691,-1.6708958511682759,-1.0995287184078337,-0.24598987418693494,0.91190595207827674,0.084704977482507063,1.0612092144803409,-0.28818953686347731,0.67371043576366141,-1.6231310530697058,0.16472879696484585,-0.48137691626678469,-0.64451109789359318,-1.2917503813288087,0.26730109302040178,-0.9597501383853464,2.9965781103908298,0.59274406993765583,-0.37350514685629438,0.28833086963901133,1.7452386258563515,0.64760625000564909,-0.82521993265515048,-0.77676534414119769,-0.10084878730843543,1.0737251095714042,0.51999495025025022,-0.48318729576751895,-0.16839032365519327,0.041881629794711002,-0.19308794926496373,-0.52002418832900688,-1.5268682360351538,-0.95790964591780103,-1.0174961297831751,0.22768597705613491,-0.75365362705961048,-0.2814403882135072,-1.5625132283334715,0.413823304903216,-0.75260750529412435,0.33064989122956379,-0.066785664127122724,0.99523533476310311,1.5409580811487313,-2.8262927958793354,0.15586451252119074,1.8597968445715534,0.3091102785519354,-1.0824324605580977,0.60391150999970267,1.1789355779060884,1.6669666806221859,-0.98912468202923698,1.2051974940361998,0.013367409778701028,1.255902389207888,0.57055128024318735,-1.4197994119163053,1.6130558759168923,1.5079757476173155,-0.22539628835967454,0.7816340746912438,0.9317879509546183,-0.77038179591669254,-1.1717630376185111,0.37195615058806863,0.10410870472303306,0.35016462840160528,-1.1830389885907764,0.54798015816184409,1.9903071418386438,0.48570709346277757,2.3336254356468529,-2.0365311558939974,-0.68476652317750741,-1.1457781934196059,-0.13173214248527032,-0.86797589081749882,0.17965262432773385,-0.14095263924921489,-0.10631130987431739,0.50877968210332292,-1.0536456357717672,1.0854731536927829,0.1102281932228443,-1.500294430925583,-1.1159482149754782,-0.39398185460608254,0.14191397786904481,0.8048295751954464,-0.79261102654549276,-0.94668929390347134,-0.69147251391041553,-0.21172224871889703,1.3678253254963328,0.71979028190111194,-0.38919383438066119,0.20529808454017651,1.3918464691662504,-1.2746644368461033,-1.1165210860002219,-2.2591776103578751,0.30676781927111468,-0.48949686813097876,-0.75335277373956344,-0.19740943404654793,-0.97785297796537285,-1.0006962198376697,0.35590469505580558,0.33998082191787649,-1.3157402372215499,-1.0266569912427828,0.58327778640796468,0.7885205539041501,-0.75996804382513061,-0.69948735145453433,0.78837708760561209,-0.80384423250707426,-1.0876107941683548,1.480094429412478,-0.66290476599453729,1.067126130194584,-0.20429715986756,-1.9010762480258101,-0.51432468964164668,-1.530871506233731,-0.25796300806364586,-0.78429579348696699,0.16136960840824982,-0.19992366729212796,-0.91849910017348324,0.75038817601198005,-1.3362217638860869,0.8487368103009052,0.68384122972481987,0.33100801796308982,-0.99653446113351396,0.071907791378700445,-1.337118147730038,-0.55271171782855177,0.57966952508110592,-1.8873420021170868,-0.33080383807550251,-1.1192954828305086,-0.13370422156927864,0.56155350449461705,-0.61569776676114651,1.4383901465273485,0.43699348115133052,0.78584643504077523,-1.390147931525481,-1.0763213094068138,-0.71443077808982669,-0.50276281756511743,-0.60826887778211403,-0.70193329952064831,0.32664371786857216,-1.3904068037058241,-0.48249314827946238,-0.92499689266434071,-0.68081175780698033,-0.13560931596250275,0.86600356721817406,1.4986320246278917,1.0816919602532009,-1.2333862827695947,1.0460637886736854,-0.065546599182090867,0.1508759161432757,0.73791023762272556,-1.5734347450931998,-0.72215141661496474,-0.52471549855732103,-0.28035142500675903,-0.18799012238240917,-0.79276204904833758,1.1026589628017516,2.9461306789015591,1.2850107368315591,-0.89392214635106249,2.8567540417186241,0.37509278687429581,1.3670886190479634,-2.7418841100208602,-0.77606081120904458,0.42084567907839598,-2.0066260623654908,-0.24112506850229296,-0.59662784238932742,0.062841994063493542,0.82983959354624259,0.37882940765702772,0.69663515349864624,-0.66705015007435686,-0.095160058448343826,-0.079571527798146857,2.1582576521825527,-0.10363822740218434,1.2984425628549119,0.042999513149287648,-0.1931329095061495,-1.1292444380006454,1.1872451298946327,-1.1198037771544054,-0.56021652692504575,2.1893883065323565,-2.4735405234424559,-1.2957013025441906,1.6556563911704028,0.43510061472294959,0.45128768641432471,0.72906063802183019,-0.17579916170957005,-0.038331575686880719,-0.32343202757241252,-0.15942467091415524,-0.63931511678190434,-0.13160734427760087,1.3718617564225708,1.0086772742454528,-1.0228364001620942,-1.1950636122942904,-1.1425937401250947,0.43197287888373836,-2.2132050051819814,-0.98837688097422916,-1.5832345775643537,0.38146642456790325,0.30005336352299689,-0.66538038931325949,-0.26337178211469048,1.2898332559782086,1.0397434197239119,1.124810044038705,1.2563813677092683,2.3206488873220801,-1.1751935821560848,-0.79621525268085513,-0.23144945320022201,1.8264514065877919,-0.95868629639170644,0.61732641810922906,-0.88983720923998322,-1.3214959373602215,0.34995428508818566,-0.22138400298260924,0.43379670136048759,0.63503732977364635,1.6306967140767037,-0.31441355026434881,-2.0862799218171424,-0.59650403766889248,0.42833008286821733,-1.0373012754547772,1.006543163239531,0.96945628185900101,-0.18487181222811425,0.68089232833341051,-0.26958173433818616,-1.1247351256842075,1.0149132191286405,-0.2052302222339015,1.4816838608881904,-0.44897780353450889,-0.35650077992778151,0.13018946748073787,0.20108693421740809,-0.20649221206502524,0.76221005913218298,-0.17465935167202715,0.28796943213924697,-1.6362000889714199,0.0013326322598161489,0.48022383921198564,0.48552284382346034,0.74779925562151117,-0.8604197930557671,0.12334415303181924,-1.2391177078191544,-0.85206875967320539,1.4687828196600365,-0.60468200853044352,-0.31596012759391634,0.3851013904759486,-0.11841236389415165,-1.884606557366022,-0.90099710853054527,-0.60797100736850096,1.2590049504260119,0.33527530323783561,0.14428996107065586,2.9855905102465572,0.26184551689070573,-1.6590170510302666,0.41000174337841588,1.3715744760445083,0.39512320850953919,-1.8172532261471392,-0.097632485105460354,0.88298344308548005,-0.018796386976169633,-0.82862959093250843,0.49491611233070926,-0.44795995261948529,-0.39169537973041529,0.9441380480328313,0.60733527302347123,-0.34725696184131782,-1.004101577469906,1.6230794611814185,-0.98498856303099358,-0.97152870323233231,0.36929160839214514,-1.9325616684897957,0.31377251023951319,1.0150413341829241,1.0373677266293937,-0.24440374376954185,-0.57161167785544076,0.48683487271867271,0.81042426780763699,-0.80754993303786848,-0.56425865236154826,-1.7876106330454626,1.6551418784864986,1.1009143079671968,-0.52606938700591477,-1.3451693718334949,0.5980448750745273,0.0024458342597638433,-1.1168335196275223,0.9298491662419831,-0.034825281314872274,-2.3667551086611294,0.50158695189653368,0.20307035983493449,0.72931233884411162,-1.8184950613974677,-0.92599240132764415,-0.30406519473945504
-0.92752126246720235,-0.43317752605390675,0.043266850224154857,0.84693658491728741,-0.79676223444443584,-0.99487416703070808,-0.43952863012773452,-0.16263083253146207,-0.92922699164585165,0.006868340179446015,1.0468095630655394,0.3395732541407997,1.7940070435549833,-1.3187471590319946,-0.29381164668066417,-0.62546099887540751,0.70429851000604471,0.065283161822350042,-1.4005766908004829,0.22501367014959342,-0.34785445197523052,-0.93678268873011339,-1.4644476751745297,0.8086754556246597,-0.79716418326680361,0.8823536495807619,-0.36040796194752106,-1.5967845982940532,-0.34815372966798203,1.2266803593555429,-0.062174300567520997,0.48486879429183755,-0.98257852539521073,-0.97603129254488397,-1.1587580018279249,-0.74061433477497474,-0.26148305031430774,0.53052951502788837,0.82127264377233256,-0.9170906782173246,-0.18822673344845992,0.60490850315772315,-0.16135267418181287,-0.14648806343327755,-0.38843424952648936,-0.98170792422978881,-0.77114260833229831,0.32673280146620037,-1.1223703955264366,0.43078451707898624,0.22912177743796866,-1.2074528061557657,-1.0178064859953608,0.56787909179945184,-0.46439299392820027,0.99332403653051204,0.98555842335316313,1.1060211876046062,-0.63101614475226053,0.0081811709093389598,-0.14816019202216299,-1.2422801808295987,2.3601261283606463,0.66081662410241426,-1.7982822382105101,-1.4246084380553627,1.8674743759968258,1.5450466896060269,1.8097910378406479,3.093282681553732,0.30869531678704387,0.4020250174908665,-0.51733495738943125,-0.66874537855482863,-0.92743624106783595,-0.42757360566960256,-1.3227818283593185,-0.58840795761808573,0.23286175143135671,0.55766866616739463,0.73377498885602899,0.48508832337710578,-0.25995664471900248,-1.4960278641870841,-0.30061317348280803,-0.72861476752148735,1.7632022483796208,0.9022828438453746,-0.14643177686812514,0.68307378206565939,-0.53381719907869019,1.9632834061867555,1.1799173244493188,0.38652802526821689,-0.18595221097144143,0.41667001432512096,-0.94902729380737016,-0.3608629106574272,2.1914864775048133,0.5738758957984863,-0.60173228362648268,-0.62809143641237764,0.046431564358129174,0.92623658074742776,1.0798171919189024,0.017350616042828972,0.87087525217563566,-0.87373579031578785,-0.64252410975137564,1.5933773617300404,-0.15620125303237725,0.29753310499001434,-0.4636628142161115,-0.36452774065006022,-0.18228934585398349,2.1027312188542031,-1.340151396179863,-0.41522133424359525,-0.053199938747768245,0.90871438178615105,0.56612338692517439,-0.94786216568086823,-0.3107550180623489,-2.3227125971194886,-1.207867864666345,-1.7924588202501632,0.32006866033953807,-1.2471089522520991,-1.4863828505515715,0.30153087755807922,-0.092413910969660173,1.0101234048172303,-0.82106587373587647,2.1243705157388555,-1.549654217402993,-0.33857567330993016,0.37306539615371964,-0.3419445950515847,2.1960337410254049,-1.1785507750413027,0.015492027938210428,0.064210268428780137,0.22757294869881836,3.0289992410769715,1.2831373289536954,0.18526279497547243,-0.40380738751793127,-0.72464885994964745,-0.48343883530475978,1.5503789913999164,-1.0146761230559311,-0.38555755625140525,0.58408476972514523,-0.38828106121758471,-0.19918504546235613,-1.0846743586258418,-1.1375777877524038,-1.5376659863824316,0.21971776748081098,1.4293695783159053,-0.33036043841237306,0.83868199416226163,-2.0029758599571337,-0.79587018502165596,-0.86203675153863157,-0.060462932185706815,-1.4011958596870027,1.213464165733477,0.38076438653361755,-2.0286562443635998,-1.6846578838752082,-0.35560202037481647,0.12300764150910445,-1.6378240074561603,-0.17989695030434527,-0.042397531456466131,0.51270654986212705,0.17005880280908245,1.3954896922852502,1.5134191800789378,1.3194528082101227,0.38429017632440532,1.5320677409245638,-0.20388321460180431,0.18748998801818778,-2.457033399994232,1.1057642742875611,-0.30051780895868369,-0.028080184490455306,0.27233895815315967,0.84667998837754499,0.82162911079383005,1.1638975494940722,0.26693165035691491,0.10791745943150885,-0.6157082631674442,1.7359956888233881,0.37957995606477279,0.80819312302747981,1.3849951355524996,0.54297703431048217,0.2586291090956826,1.4262153199359509,1.2975101396513034,0.18216160987341784,0.79936677214809182,0.77016489937229493,0.8959956177156666,-0.60651946000737611,-0.21427371496219585,1.3754877384762318,0.12389467268462702,-0.74636228853159603,-0.20073581573634697,1.4719880613179688,-0.90869938465897471,-0.17297046866926069,-1.3593248591611053,0.012434337051804786,0.5708417314912797,-0.56595222740440432,1.9754251315826705,1.189672431533811,-0.89273076072613933,0.53135474442178454,0.70640000064118946,-0.82920216930114277,0.68719518660361723,-0.20383330781505549,0.42682689109895405,-1.0642647966635694,0.51675642149853229,-1.1102012608275615,-1.2764414479938431,0.98575149529611295,-0.23289947408682707,-1.3573001446668584,-0.42570363141106721,-1.2480298204140949,0.0033201343837543184,-1.465372962291543,-0.51414285307578389,-0.22741108015545938,0.42582675853833218,0.25492271630210583,1.5695780547856286,-0.34381378456456241,-1.9650792792279237,-0.089761071447156185,-0.3434378679565554,-0.85222778874012539,-0.89680167069940853,-0.54702444658270322,-0.27953718648155695,-1.1668778739928727,0.31885988214868871,-0.73133358464230014,1.1966904778609762,0.63840746364134215,1.3697348772135969,-1.5130428162290257,1.3164744336745378,2.3108090086947057,0.77787888355867918,-0.20899420808449931,1.830707987515211,-1.2068551466417492,-0.58202754964441306,1.6872685048924094,-0.16428437263261564,0.039700739031546174,-0.36543364253408478,-1.0244139537736316,-0.3562056106090874,0.57283168824421771,0.21577084526457307,0.14795168028417394,-0.10789995766133559,-1.4431657701189056,-0.62090747167829397,-0.31239731621223432,0.56356481712742335,0.57681920728077607,-1.2207827466596195,0.31909986599743567,1.348073438518236,1.6917883524064319,-0.25724067892663688,-0.3431035581708955,0.95946022056857605,-0.72358095411520573,-1.2080766789198054,-1.2120493390540037,-1.947582419834142,0.35308892151188925,-0.51980896796378651,-0.50209102078932344,1.0421332270649495,-0.99219643526277213,1.2298997312238913,0.64721516909879007,0.63542358107648944,-0.074464343060715324,0.063628499082227022,-1.4920970313865285,-0.046216433601029124,-0.70207596520903026,-0.12589772338425848,2.2505497669504457,0.16536597010635937,1.1072537483016354,-1.380529623370935,-0.45512833309327977,-1.1412456781734195,-0.92249782845297179,0.45253805021198695,-0.66081688326737564,-0.18322908478069649,-1.2154185481769324,1.1867672659878437,0.87453586616724788,-0.23440782856967102,-0.63721702594559548,0.47723654554437955,-0.34849325680956084,0.56460609303639253,0.89144574445867764,-0.5377958469231422,-0.54503445249070515,-1.1706869916397871,0.70981328206571614,-0.75162554513163182,-0.64425647393249397,-0.4511482448231291,-1.6024371718383834,-1.2683102342196859,0.94990022903376015,0.11795218237195079,0.6252170811955331,1.3682838291558339,0.30014983449621935,-1.8834876947873158,-0.91857177216175434,0.98096623390917481,1.4793231380605643,1.0744131068483003,1.3870367302772517,-1.4764800795943598,-0.38117263324995188,0.90209163403793757,0.62229498749100864,1.3106269806055209,0.77450861566748141,0.31949166103395249,-0.62415617685294478,-0.99997821876287163,-0.43592399821481226,-1.4144437404930854,-0.60367986963189524,-0.28260834850568478,-0.34714395422304445,-1.6468026258643917,0.37614599215140981,-0.55097529142515245,0.30059378656878855,-2.6549317007543483,-1.9115232100544661,-2.5053781113928508,-0.64473790458096769,0.77018960113762014,0.074513196318216943,-0.24430365580992938,-0.62949255185010788,0.66840927124649596,0.21509895903574883,1.5972898568307381,2.081246569381185,-0.53745206103609355,1.0619499803241956,0.19332679057330207,-0.92986747398620384,0.18791263747705081,-0.79370500199835181,-0.77784896585406671,-0.69523822860856654,0.63654477041076452,0.59286657571837298,0.5722379963771056,-1.5122027089233416,-0.88261953219477052,0.1729781690727131,1.1625546830748039,0.57741362817668418,2.233925628918831,1.0681498694640064,1.1149738283068613,0.25005347349596624,-0.24560279764495563,-0.25620196774883153,0.3688879687684033,0.44116953608766168,0.68473091396862784,0.80081815197543615,2.1332546227982507,1.7329242106046927,-1.0146294337454229,1.4400319527435022,1.7625056512032493,0.50754855454023373,-1.8884215165382272,0.3864137332053712,-0.31053881111194748,-0.016079830303996671,0.41705651179278747,2.5838936496476226,2.1025408258816296,-0.91166389075319243,0.32921396089633082,0.47003752249448255,-1.1512786142811742,0.1908870907175769,-0.43944590035322018,0.13197356133652416,0.75623677178074,0.56265170376211271,1.7294178735576142,-0.27921192106127968,0.17172466688785862,-0.17729598223397386,0.26110142801461067,0.62786414002862978,-2.2762278784492276,-0.93363842565517818,0.71239124529588427,-0.087348925303514305,-1.0720584216602655,-2.4520744161095323,1.4714509572230869,-0.77784987386960702,-0.63221043632659435,1.3206243291433808,0.70860954083263006,-0.84207514146100715,-1.9732244115046484,-0.63392598015338575,-0.013593134667314063,0.0012381492071234905,0.44370663613962763,-1.6203673743459159,-2.3795234849205205,-0.42954182424990933,1.1966542231139536,1.1402901369078944,1.8835148722012995,1.4576180387450834,0.39607082009812239,-0.70282892797996699,-0.093467770351358379,0.36547610319371593,-0.78443515610154968,1.295578246205682,-0.53894741812985636,0.75938453861933708,-0.94821602394919458,1.1583394520100068,0.21117232004855058,-0.1478171758416307,1.9535271308611888,1.3265139791903715,1.0628464114454821,0.24991693489643912,-1.6164094815797314,0.92614766700172713,0.054983258711876613,0.95673358218150983,-0.42239284286733114,-0.018903945045668918,-2.0837007926261251,0.72204103071894543,1.2698867073337765,0.52064700247735007,0.70908831248667326,-0.014724211941736468,1.4581732420114484,-0.67954772742888225,0.3275440609102494,-1.5041630476919932,1.4002356973489618,0.15193879313217828,-1.4575809415471954,-0.036699193206022912,-0.0063642374446374328,0.67371026861710703,1.2658605235285056,1.0993037745712753,0.89072303216790494,-1.1083726234980917,-0.32007975179025466,1.5545113854881012,1.7749238459137651
0.34450304262852494,-0.45099618642124578,-0.48971451157675555,-0.5253930101977824,1.9662906808959653,-1.1886590745538568,-0.33415819149195758,-0.22302336369577042,-0.043771001192543242,1.4995324849379248,-0.65841939684895801,-1.2096656434330373,0.97451239069085271,-0.34722053765850264,2.8873490945053213,0.51747794433291772,0.044222152616919766,-0.57903517947965477,-0.24326595383800934,0.91047032874379019,-0.140869325904073,-0.7163707394511678,0.88188046805017617,-0.12102639117041475,-0.49823167866269691,0.62676239602899819,-0.17760271016467682,-0.76551538564909216,1.0249266001230297,0.19073060583561641,0.22094300829826088,-1.2281533876591753,-0.15472261738265417,-1.5810156267206448,0.30313636178698145,-0.18596412999792777,0.045656619883991251,-0.73591805987458758,-1.308109105769288,0.8452829021659326,-0.9318491840305585,0.30279872055120777,0.28275435327487547,1.7125317894227143,-0.297604798674037,1.4701560695766873,-0.16110190876155581,-1.0829219513114485,0.04186703249174735,-0.45254778220363995,-0.67222674238805191,-1.4573730462024364,1.2274605387791928,1.1506646875482589,1.3664742469639319,-0.15864633762828115,0.024439560187902738,1.3700183911228652,0.51754046387520525,0.25419846345075603,-0.030700075258009826,-0.83163406461970502,0.047036291311085707,0.76949754143362203,1.547824044957363,-0.59419488233814199,-1.1080668571131467,-0.033746464365530089,0.18438522815751981,-1.0800936628651023,0.31476401399062037,0.95484939800695501,-0.50604059245950928,-0.02186297229377903,1.9628102511352521,0.11580301822894881,-0.2425587271099455,1.8241695099895712,-0.78694008622407952,-0.24526667666867838,0.99300835066113891,-1.2337746335828241,-0.68462456810573846,-0.79838936867176769,0.30209069150591489,0.50279806920797399,-1.7495962342067402,0.9602625360654945,0.022551360332029813,0.24614569997155147,0.37706520257882081,-0.93755348984245368,-1.143296022534197,0.031264858524393001,-0.042362149042564884,0.71585997930109146,-0.68251342768640166,1.1186534308469387,0.029620552601044393,-0.44729018837029699,-1.1669531201373724,-0.83097164007991531,0.15061635957981256,0.22451029309080733,0.94321402401048715,0.9485432718244301,-0.34845679173697441,-0.33688078125666754,-0.97682888960962688,-0.36847152429906116,0.77172461801553949,-0.76119754454977628,1.0197580932466854,-0.031539066577065636,-0.32052564886483698,0.69033877963349943,-1.1881261272490831,1.3885451854830839,-2.1531408691491656,0.32473256613766743,0.51958457211887421,0.80043681288690527,-1.01636100335017,-0.98140632730440835,1.7218637240198733,0.49457624524309585,-2.5778499153571626,0.61775480357608026,0.46833241623394761,0.48668587289445964,1.6591371143743721,-0.44895739900337639,-0.74156471578121075,-0.29693296658862556,-1.1872173305553402,-1.7916533881207626,-0.6596787704989121,-1.1592729103724093,-2.091858026313655,2.2384603509850209,-0.2510340674520809,1.6443545779942885,-1.3118908344548652,0.16727750751370926,0.21119349674426133,1.43783427944679,0.17592302058420572,0.51023780107665517,-0.031829541611852086,1.0032412363022449,1.3096244716200902,-0.79978142004706165,-0.80960581516461805,1.6530977770796518,0.67895938637657105,-0.013957153610356642,-1.210993244463006,0.88649404679515065,0.18620054871295269,0.59629102636021969,-1.2451619102598996,0.43898632748709571,-0.52330499930343977,0.072903879569503671,-0.88723138978548044,1.6213256364313213,1.7737484130431627,-2.131218900374888,0.45326441287164504,-0.23479248371721209,-0.3490270217368262,1.0845871109649443,0.90776946509278267,-0.48763533474999404,1.0632470346867591,-0.80534948577543952,-1.0868808510270429,0.77241265161171047,-0.17321455739510497,0.54586075995047656,-1.3468652713139679,0.63278078193670606,0.89037541828815403,0.14725106054333498,0.97857430004650925,0.15875108131479776,0.018679556570180871,-0.40196978945275413,0.030153737947400575,0.7961512860502522,-0.73453933222022005,-1.0799892466496364,-0.1813652125957104,0.62339998693701926,-0.12263790724303929,0.56311192111044428,0.55278832760935215,-0.65877763265421996,0.20936062771477432,-1.3798574036033335,-0.45833780600522767,0.082880789166298929,1.5496074380927982,-1.5523760333372219,-0.57082784891495308,0.01918133062629223,0.089053606575009089,0.92045401207882349,-0.96538501861090154,-2.0303385111987775,1.1922186495341986,0.089212836259962555,-0.49813017996723497,0.3449089555126531,-0.11894182639047737,-1.3383259936558634,-0.3394158223057322,-1.2946587861171739,-0.26344777010664283,-0.55837317737431724,-1.1832053908357545,0.50259672417319701,-1.2451432984350082,-0.57971743246742213,0.59541458447864126,1.8811062427105947,1.160844826683755,-0.96228762278747981,1.1485913793208129,-1.1236379267646652,1.0254961503962099,-0.29160747746213705,1.6333274986818533,-0.67104449602843141,-0.29568742912992713,1.3472880488504899,-1.6518585958350473,-1.1632706359976723,-2.6641059211949671,-1.7383632661790864,0.48633225635310506,0.51264305422926815,0.8465982084041429,-1.3278345103119138,0.53458667566309859,-0.93547199159231453,-0.25034561377671344,0.33823603350404313,0.75731059617901664,-0.3868819625091337,0.11881416059163324,0.4764534704417982,-0.95443004861219471,1.5351513435350415,1.0917453354790436,-1.0676697303149563,0.55560890563964849,-0.11869294949355107,-0.24842527602463593,0.23255962782828915,-0.71137450098265687,-1.1011661520701548,1.993725038943269,-0.15842737213173455,0.36770054804966384,0.42432004690511976,-1.4996278119785087,-1.104101616696979,0.070295015932857058,0.96825034433641877,-1.4649612020557847,-2.0289983470214334,0.32581780271835498,-1.1304553629712948,1.3455821290165326,0.86787872368774266,-0.76071918301087527,0.97434848326920731,2.2629771399148684,0.63471832670864003,-0.070294124115316506,-0.1442955951150533,-0.37389175435327343,2.3589627986866106,2.8126406572662757,-0.92234377604417739,-0.055036692739904781,-0.28138335741321968,-1.9258071882202592,0.41850760591404379,-0.27655195314982445,0.59431695870325163,1.0342025506616859,-0.79946082743240032,0.23433898745041767,-0.26699858524038472,2.2052384342619753,0.85641273543211194,1.2278229977688544,1.4148285438286585,1.0074862444023067,-0.96189479014547585,0.9690349376706473,0.6433943354344851,0.88291684216492849,-0.92356795717306306,1.3032238445123914,-0.0061329615196159546,-0.25324246080709145,0.65828495408592225,-0.63140446072515199,0.21009442529248401,-0.042783711670312093,-0.10776304082961952,-0.42727041848660469,-0.68956196086546406,0.1226191895830034,-0.82112750222407938,-1.3527131355918078,0.68465037102899473,-1.2371048518289389,2.0945016799365286,-0.36479694960079573,0.99054568530093756,-1.0071307920075689,-0.67349324260515686,-0.86387366668703969,-0.19444826610941401,1.0305000409635166,-0.22647155823431811,0.94352611040845669,-1.0354270004327391,1.9589497917086733,1.2353837640995571,-0.45393739366350894,1.0999824713389086,0.42165381999137275,0.3365636198854417,1.6151025008620372,0.069514304001509403,0.19422676048365045,-0.1693175757531043,0.096969916470653755,1.8819763304380703,0.33361513137409776,0.6224693066057726,0.75434625163601776,-0.63272133926005403,-2.7452939034621102,-0.63235237981567427,0.017775825496049055,0.7305418623839357,0.53991399874492674,-1.4461544802697937,-0.2288325153758527,-1.3444319423846478,-0.19241736803926324,0.37100764642022843,0.89511153100415641,1.4369528380330747,-0.031742278763788087,0.92149128373520528,-0.91386569651482663,0.10373896163150423,2.5110929311912749,-1.1598827547730055,1.1681698170271186,-2.9011300715198587,-0.15259716997774045,1.3087767469536526,0.040106234849617804,-0.58718061203327199,0.33006630889504079,0.48476626139747719,-0.95572436529122884,1.05370774468817,0.60661148852263569,0.17740040908768254,-0.61807179483776509,0.10225190831791096,1.4308620582780869,-0.66746560446774583,0.14945735690292697,1.2840979009933362,0.25219067901648751,-1.5135546169015131,1.1477714744878071,0.44667422248533761,-0.793214938344038,-1.6686725659410584,0.19063845345581409,0.9138085415095063,-0.2191599296610485,1.1730274564227765,0.45256627126732868,0.57786444688705574,0.80766220758802831,0.20039847169305713,-0.90244619288920702,-0.50074412498594889,0.40332457245840031,1.0533060393430631,0.81658796022333346,0.088083159037331826,0.49025697480360358,-0.37303983455582052,-0.20242350936193407,0.3642520411720257,-0.28022747137104814,-1.0077395587803089,1.7052778043910943,1.1265677627606783,0.74484947773857269,0.91064583016453571,0.016302162836044774,0.63488896707870401,1.586759100131317,-0.35394404769877125,-0.17067821010471212,-0.45513339761642252,-0.40855556397061715,-1.1928198574116182,0.23846840220010043,-0.057107111157185274,0.96599088028669677,0.15995155960740173,2.2590052092120789,1.3191177539439229,1.1789338631500836,0.52611213943666979,-0.025443365771169492,-1.7772831164622587,0.80882180328553466,0.35161208996953469,-2.0436298239413078,-0.38715778109524995,0.94569979881676491,0.87098813347960735,0.56535839905397722,-1.7130954173413064,0.4734867240256202,-0.51955147450073091,-0.38448008201142503,0.37916938561242497,-0.020058612077570263,0.29866847876890873,-0.59058858431668704,0.40979106324512166,2.2501071401673687,-0.44097350338818186,0.32011928139761242,-1.066618343187808,-0.66936166696277777,-0.16052120344316187,1.8665578194987245,1.1475010401868904,-0.98628839917352817,2.3787517708748438,0.35211036570842102,-1.4111724037123843,0.029686332907230859,-0.94718033889890196,-0.5535009205596555,-0.82461894650711576,0.99867741072779492,-0.11664161562569043,0.54612323963456255,-2.099468229065578,1.6552438950123591,-0.17738839043617211,-0.54640385062666263,0.18565291865416556,-1.9991259108542212,0.19426010720693015,0.74123225601913778,0.90741528941296745,0.38480190022203042,-0.38359546322120319,-1.509102854418217,-0.28190522275614549,1.2371353933075186,2.913156781644223,-0.17772643273452501,-0.97968123849822486,-0.9579682499321015,-0.11401472285567542,0.12472974944802959,-0.79862118490844503,0.54570775340615296,0.97516174384223708,1.3083213121367616,-0.66034706744835148,0.6087204162616342,-0.43490004619706424,0.8716098223829305,0.7162915204826209,-1.4633862894906786,-0.25688159267137689,1.2393733251403247,1.1662490072497294
-1.0710511397395734,-0.9762495420088072,-0.43847866634139798,1.4852886070303604,-0.26740856047160383,-0.94504588592260719,2.0765832198422283,-0.36848659604593165,-0.98716397031363823,0.28513739701332097,-0.10932871781168373,1.5013399237188858,1.1499510482806066,0.12303761720753771,-1.491680855959727,0.53969096257041982,-0.49015811195791453,-0.91415974061014815,0.5755265739753016,-0.63742258868200186,0.055378209868227092,-0.32831997907744853,0.5419564226377992,0.70180071244018483,-1.1386801181235409,-0.62861762320604064,-0.98010932853222976,1.7159115036007733,0.87469962416323022,0.37806517107049536,-1.0657447577370345,-0.15976551289768776,1.8474773266971254,1.3308162912999437,-0.44121013061723069,-0.55656296710589814,0.30153944758598028,0.58066727621731407,0.42444533962467984,-0.59670335439427691,0.031680156449923308,0.26397449226181435,-1.9992583435444309,0.86655340192375785,1.3497732734292169,0.18756342885851976,-1.7265526092267545,0.67596660052467583,0.4955255444437372,0.5591040622602792,-0.62465441717938763,0.58048289418835719,-1.5691413235833551,-1.03077137751639,-0.20153998756886379,-0.3075271908001822,1.3541992388101696,-0.042414179796574088,0.89642616797581953,-0.04520376800602996,0.13922392762902391,-1.2279880908683789,0.40507357757509738,-1.0891669256691159,-0.63172439002460856,-1.3463061957222506,-1.1163152270815551,-0.55669263250679268,-1.5039347553873643,-0.74828869872462922,-0.083092301288536827,0.46406972182349165,0.80681145739094351,-0.17935433539552667,-1.1108077623043831,-0.8712894494145349,-2.2128182848355689,-1.0224394264972558,0.91079485569026175,-1.0435058096222931,0.79109975787529374,-0.42740538769144981,1.5269841840240939,-2.5642605216259464,-0.89718032723994257,-0.41824126092209107,0.064942095151150403,-0.59556589642842361,0.032561589743363775,1.1303594279236475,1.5173067795546598,1.6198984760376229,0.76853927808399713,-0.64863171507479611,1.3141510658758548,-0.45521895641080207,-1.0365064667049055,1.8711674662800013,0.048255205510853556,-0.094740671610758082,0.042866599290575493,-0.16687111807944841,-1.5322144763898511,0.61377608484278379,-0.45894841873843795,1.4105826143513698,-0.20777030474045699,-1.0413217171746507,-0.49058594199518807,-0.13312200866218146,-0.36338896280540778,-1.7244732112276826,-1.7405972435197805,-0.80754959184909803,1.0525076410630843,3.0520030161400022,-0.64086973821157156,0.68575966891871387,0.086584899822588837,-0.50237489677242131,0.37792840071273948,-0.1356743328296357,-0.56817639437735268,0.023724260473071319,-0.1945642310841591,0.19495534536929993,-0.12942625664647542,-1.8191579950440793,2.0245793833388257,-1.2903776484867977,-0.80885236303715591,-0.34956266719380752,-1.3783770646323243,0.8894988170455147,0.13334081242096629,0.5603696250645428,-0.99559603098112448,0.73474531140849852,-0.60063390835247732,-1.4708356380976932,-0.39874742109486999,-0.011790523053113336,-0.78572390803270653,0.77581176206160885,-0.22753752299226687,-0.54650898227668632,-0.29131006789788516,0.23938204326685295,0.9011688916906575,-0.1236637545692649,0.78910517926713997,0.94818688033525189,1.2018333061578512,-0.52778930726475204,0.19184648611328542,-1.7959814025728316,-0.63120934755696678,-0.52862257749658714,0.25461515315244687,-0.84643702379988606,0.95245858556234442,-1.4678151052637773,0.61410681473419781,-1.1439048312096123,2.1795535454511303,-1.09051888188841,0.57241228364031316,-0.77515061313043176,-1.0678445710868805,0.43948706391923709,0.83658247489999704,-1.1320768523318516,-1.9254754785575008,0.38226615987276602,-0.58564513486205849,0.70984904129368043,1.2683430802924995,-1.1523087103775722,-1.0747219990666463,1.906113818282221,-0.74342390283656046,-0.47269690014209675,-1.0009484491893845,0.58274491309747478,-0.58885077561277432,1.5263532833764031,-0.041373994141770044,0.56884676070782259,0.080576437256061686,1.3782299018665629,0.64421603854824883,-0.77609659366791117,0.11247412524194003,-0.22027023993516612,1.6484955839762703,-0.40277048511713925,-0.050044116537811802,-2.9958767313601937,-0.33329432343895921,0.94783620418856873,-1.0587993311119035,-0.094024717150711548,-2.2152108423520538,-2.0146488337902122,-2.5122556334408586,1.3033207364599451,-0.49333345987727095,0.4084420797341608,0.88689409084904658,-0.58735257815204212,-0.78934343368730409,-0.32347083098130008,-0.025121316698508117,0.016905932402769861,0.58981167105797394,-1.0142786789895182,-0.17088264579170209,-0.80660014491244614,1.1540661216179113,-0.48288297126445662,-1.6898859189437074,0.78768175872260959,-0.14682414976310829,1.2117754401069698,0.829817498846111,0.74176943898464531,1.3404544197680581,0.17052969278447963,0.056295122722045128,0.90161368702504252,0.81024764674868821,-1.7198716843651185,-0.38105380070335293,1.3038159111266223,1.4647793307211541,-0.66246920429598832,0.53158158556254054,1.3583708490731905,-1.0035229420071792,0.22335519691721223,-0.028176097577588325,0.50367578446167782,-0.073363609915610722,-0.43652308492829556,-0.74006563856999275,-0.30715908804040093,0.66629551952847954,-0.5412568422070011,-2.1188192082321304,1.0955791559239865,0.72903269505131763,-0.068728832777969831,-1.3406824513179687,-0.60183838643897591,0.56107780511039795,1.0085319806480846,-0.53217674743144494,0.8978863416379621,1.3691265028967401,-1.1934750364205409,1.3106077509235396,1.5609192182322875,1.6040550299068208,-0.048756983435613882,1.7856827185208739,0.11688692797798002,0.83052137699654904,1.2919589150170661,1.3129408106690525,0.30763371661753475,-0.15449307393650588,1.3253656758679426,0.27618666635604544,-0.5510915478141768,-0.20536242411934158,0.08975225170148457,0.7592338260878615,0.91946847015462196,1.0874038909478918,0.4928244371875522,-0.73955757828845547,-1.0503063834440343,-1.0211890077350314,0.28394565041107322,-0.33806422888247151,0.12371200165429348,0.12151937906918295,0.59689857257010326,-0.20201231436561939,-0.29301723244648126,-0.91752660956652254,0.15489654762906577,-0.26320777635079523,-1.9088191600917235,0.52848024578742592,2.0334795616371091,-0.92698125219383631,-0.49805093567691883,0.19668700927250102,0.14215076078862171,0.15510627453910594,0.55228994292191491,0.18742562633566276,0.082141533976195627,1.8183675265909627,1.9284019678239603,-0.39204115668984651,-1.5007905566503377,-1.3701229966347506,-1.0767140049671313,-0.50148501188365979,0.66423969380709302,-0.017491274396283282,2.0580210421956315,1.05589323411231,0.53413111197792662,-0.7589644602229797,-0.75156941417062462,-1.9014952347484064,0.15701724039330836,-0.65378669812901402,0.82566559305991261,-0.53392274455075184,1.2200115278835932,0.023771917850646685,-0.50881525461051613,0.42363845659191585,0.57665353076160153,1.6204836914810348,-0.96690517157832878,2.1830238737016865,-1.9628196606290291,0.32601985516880488,-0.37246918179936456,-0.41578075480096971,0.2183800527491262,-1.8100123938557142,0.668997192690027,1.2217743928576892,0.23403954784092321,-2.1843921474690746,-0.16208990220738081,-0.047006140916841951,0.7909765805807113,-1.2490271680802338,-0.66370430317493867,-2.2466876670026479,0.98846898640290481,0.214736576720573,-0.53477780226526406,3.2276028007857938,0.68055293862095523,-1.1321635851338419,-1.2649526569588743,-0.32959739657758247,-0.095807265387344201,-0.11809387318700833,2.4786169648234111,-1.0138372340377126,0.91147173788685643,-2.0353953513083907,-0.35274073912991544,-0.21545790893306593,-0.36033974740207741,0.27621652796149015,1.1574486494978746,-1.2960443667355808,-0.19085043968911186,1.6207832871851007,-0.00050599005563365404,-0.089371184833447026,-0.28257387971530468,0.050313456446406113,-0.84693930242166537,-0.63466243416471158,1.9316909144365721,-0.063996455110225836,0.69041182512443378,-0.40976532780656821,1.7059713592309218,1.425994136291759,0.24772497155337639,-1.0387784376992353,-0.41563886510809522,-0.12188409433520925,-0.20728602351031444,-0.81741346185200447,0.028328586154684577,1.4312590770918523,-0.92596525266695329,-0.6670766161558811,-0.32127541987415753,0.26687862025918324,-1.1769250723730142,0.89112489086482827,-1.6441297967945039,1.7404447566298662,-1.0727854701862463,-1.8562673628537001,1.0909255859755731,-0.32596275209995934,1.9010975067800149,-2.2564186430507229,-1.0808439181920595,-3.0960681980552107,1.5867146334257134,0.0097893610294994878,1.9472036025693278,-0.25634287230098274,-0.30275299845104975,1.2624501661402083,-0.92942762530140732,1.130146223771118,-0.55600516284266466,-0.17510259448572915,1.3920624621512667,-1.2925181515524691,1.7525343208717719,1.2355268236276917,1.6120629868344847,-1.3697352659376907,-1.2137915805025061,0.21527611283984704,-1.8560000092018045,-0.48834185008730552,-1.6478335118951988,0.011797708296875294,-0.37824817960657525,-2.0648373062315946,-0.060314997387748849,-0.031705525976857198,0.24489884703641077,-0.584556858548548,1.5166463197335398,1.3750841824994247,-0.32262844592261897,-0.32492241719666798,-0.39799441814004688,1.7140981087119842,-0.39360944884081178,-0.39908929176774216,0.75548259885436031,0.9644338188819489,-1.7471881357435188,0.6905459258005241,-0.58835857931322333,0.086667180214922812,-2.2314488495982556,-0.15528376542308003,-1.452661450415303,-0.081599990043736123,-0.050954927642084515,-0.64828618665688309,1.6728034006928341,1.6484095357433111,0.76235636463629508,1.7384305282461163,2.0943250696464535,0.80259446113807009,0.041384037101044858,-0.24098662921272135,0.30983352120233698,0.92401574097576589,0.31647316574970652,1.8936142234814279,0.030540060537249072,1.9373601829512859,0.26498468768031691,-0.55880212050412692,0.023890129541326934,1.7368901084719246,1.0237521096285165,-0.75096663483165116,2.2826231696867798,0.19659256373151074,-0.88565859167538463,-1.6161323095255455,-1.0587523943823223,0.93012036691154609,1.7599010565987911,1.3431828836841087,-0.33522428388807107,-0.20812614743370189,0.17987719628356755,1.05776912778118,0.48509494904338718,-0.88175403503853078,0.53915011149880787,-0.62037618085993285,-0.13380277757406517,0.46047253201602917,0.06764798551902676,-0.96868578210226075,1.0895646630018889,0.23931477116136529,1.1800775907061469,-1.9371840391055586,-2.466862783938069,0.15917089490571187,2.1276416351310554
-0.94105081290112469,-0.20655784872275151,-2.3095489675638592,-0.7743588393838553,1.0452255919028708,-0.53843143139847383,-0.29974178051371736,-0.54974403639705116,-0.58364740590863462,0.13195463494532789,-1.0237481589667774,0.14844440164776718,-0.36447881584416292,0.90594764261825678,1.0567724203484494,0.72895905440760655,0.068341234782713312,1.4202010357293113,0.47529092442062848,0.48533397459077077,0.67747700308338255,-1.0187359456774843,-0.40793333241346907,0.6969025646398963,-0.11857083934835923,1.2707855450189767,-1.4634008548573427,0.43570294602615295,0.28758862823944059,-0.46204259123047464,-0.51479665161014132,-0.045015328501875763,-0.40299673619569998,-0.83868074414860672,-0.094154159306438653,-0.28347935935535334,-0.17235746309151911,-0.28011948673397924,-1.1320873561611478,-0.4377400851264488,-1.1630942259170931,1.0456017528335351,0.90179932469717206,0.46489666907763932,1.5632799265936488,0.12489771330374817,0.56076163009970115,1.4622053921826947,1.4219534176955628,-0.033006890164941155,0.19835231595015412,-0.26523734129359999,1.0657479480203091,-1.5300006303906637,0.033292805363575678,-0.784728240631409,0.051446920363739081,1.8309451106601808,-0.07523861878968971,1.4079555117683362,0.28503488751327483,-1.440705244628969,-1.3023481246376505,-1.1892098534422475,-0.23424913865908664,-0.01848062245654852,-0.2402472458976386,-0.040667844780732113,0.25312531755775408,-0.32676993466666499,-0.39735419013488338,1.7143356705060087,0.19997055006102465,2.4237422308929095,0.054147012914207676,0.55000900753985582,1.1809428549761394,-1.690326984225577,1.0520223174697787,-0.9128429642880711,-0.17650518661415421,-0.95909754157031823,-1.9986739952994885,-0.95484506659549639,-1.1331072628089742,-1.0771840204539722,-0.89563204311349243,0.97385209871960843,0.30528294050400323,-0.45084884912127654,-1.0521203519977047,-1.4831542006771097,0.1374044859684222,-1.4915758505608838,0.70545691443849767,-0.58620716827982511,0.52734999417413919,-0.88466979581150573,0.56892928130465537,-0.79445699888905852,-0.056238528642621972,-0.93275768702495843,1.7794640846387191,-0.16639057588133904,-0.23561120364230159,0.19422231073153615,-0.63743036429409605,-0.68379505072016622,-1.4162204792501394,0.20111917893082598,0.67660257343547126,-0.36594381503843249,-0.87975115662998826,-0.54785301446833656,0.71054259538196696,0.7327650369601495,-1.7633166931821811,-0.55390502363437344,2.7103070769577493,-1.2682056067238969,-0.42741387600214031,-1.6210798792575649,2.1511599597870079,0.029092246541195889,0.29977139072306475,-0.19028756729460219,1.0550740779765342,0.19546689126810401,0.19039287412502087,-0.93742948715780194,-0.54067768276667838,-0.21621477655471272,2.3012387444213029,-0.35102052168331838,-0.47753717702614978,-1.5972902410627656,1.4258678789989307,1.7543798176734975,0.037439574472506607,-1.6066174077465862,0.46019765910816723,0.052694832066514298,-0.15686437411854412,0.75491491050115545,-1.2708810020664625,0.12834518084710658,-1.306786265411181,-1.7777416180140893,-1.5761263196926913,1.369465271574291,0.88335118932853685,-0.21304343028218756,0.2720719421238042,0.19528068591199654,0.29964553877946715,0.73610096375314438,0.25740213027083919,-0.3369910089998896,-0.63067588311167699,0.88295782802201217,0.1289956461454419,-0.9713115004450189,-1.4189535400415842,0.0005183306693610153,-1.5246473987435489,-1.0926973286716377,-1.2701547481205582,0.54294924403376743,-1.1047265414558147,0.14623809675872074,-0.77893342411627897,0.31050182345743538,0.42791070559486422,0.94544388568487758,-0.26577783127088306,0.74174857723470144,-0.50073162738612176,-0.73101882226757797,0.70751820046126135,-0.53062714823508983,-0.60710070539143857,2.1093356028182186,0.38798742550326604,0.95283525241361144,0.9321766810173604,-0.54461091729144606,-0.19404197241985763,0.64208586823240055,0.00018627362252330605,0.44630910602210416,1.8555000848308139,0.90434635235479066,-0.90637609637446082,0.88052795602931355,0.72815498484957775,0.75314094941473164,-1.9046845336118459,-1.0510652616274778,0.44647344775690706,-0.61683266511124235,1.1760508403270296,0.037581009871598389,-0.20036356324747556,0.425684501358433,-0.45924055125266205,-0.49042166916761415,-1.1532552962860909,0.42509145388159575,1.3160739601220697,-1.2213840669392755,-1.1924499857534552,1.4878626524252323,0.78548532176345653,-0.84217442517650487,0.047676980531931583,0.46347199862417299,1.4499313781011753,0.35490397091703307,-0.60419004980718027,-0.73699559925378344,0.47420432686801284,1.3907258881355216,-0.93381459810561418,1.2234635143337467,-1.6597601350888294,0.26652414625712617,-1.1283084414205677,1.8223920224298382,-0.50560538772946662,1.241057419843778,-2.3187886515130991,2.3192027214497668,-0.12730504954617089,1.5677991106197509,0.34771363673282157,1.650295811296854,1.7383827956878566,0.9919498207668056,-1.1566525256742552,0.3481365879862276,0.35336116160299325,0.60422411190680614,0.15134092284015266,-1.5722306575323259,-2.2697096913960579,0.50868248855825204,0.87177334124762673,1.6728681390383087,-1.2642838629133832,-0.23455508569890368,-0.00086646634422716574,-0.67627221171981922,-0.70925452536124411,0.70218142149087748,-0.63128553347110505,-0.81998794543489095,0.93591546950905857,0.13654774748191881,0.20900200679577832,-2.654277347610889,-1.8092788079273634,1.2011149086499431,0.71824469279329073,-0.50073603143337886,-0.6297384247794624,1.6992450017082741,0.56966971662310883,-0.83408737165696423,-1.2191213961858149,-1.5502634170681993,-0.52344304831858401,1.0239662671294631,0.55572179854935633,0.82896883966272528,0.1903354180799125,-0.097994801179334498,-0.37917757723979451,-1.7437867426477163,-0.29380131318928004,0.20268920340314941,-0.22861144028348607,-0.47468830179086469,1.1806056079047218,-0.50403464493775296,-0.63484547393932489,0.73113637130656772,-0.42255546508868175,-0.2691723564402394,0.052897934603544312,0.58376411556998253,1.9287961266429032,0.70746471825058632,2.0670622487203927,-0.11255467570601223,-0.092172449591124625,0.42766627572486737,-1.1875612298104656,1.3282495871320545,0.14654632505883988,1.3265010667812649,-0.11877040719191682,-1.1263039347653045,-0.072236127972698044,-0.21137740960541654,-1.2850872381701577,-0.91389225283709352,0.55783870109820666,0.21744414866872916,1.0921521428934209,-0.40695677763850802,-0.6669086616352301,-1.3170855553747163,0.45816274414813418,-1.5933085732878853,0.4653257288702175,-0.24166840229685596,0.70466491776563356,-0.23311530240890399,-0.64372366556574545,0.22501547655690252,0.27588229581991641,-0.48991915021004706,0.96714531696611494,-1.9315040418331375,0.78552862922138866,0.86032644879682085,0.35242716271118207,-1.1213010034044946,-1.8558368024676686,-0.71778421502235046,-0.99278980369827696,-0.67781341408861107,-0.39268428506704289,-0.092278263028603841,0.058084164344383064,0.82096669865105532,0.45492219859748922,0.001139213179603448,-0.3033640211638165,0.33413786048786581,-0.043654411248829315,2.1944646465567934,0.17632129652194883,-0.98839133506673194,0.71258031975641434,-1.6357064180448257,-0.97277632197499564,-1.5008693463524172,-1.4231819089636197,-1.7981799631218598,-1.1254064987074088,0.41457433019691126,0.38879085465268637,-0.87826095345569433,-0.43039073080362611,1.2694404777809811,1.634297850558889,-0.61381193658978839,-0.045554460164101647,-0.49500004894475563,1.4261896018659184,1.5144756993687198,-0.42846484606341806,0.64598388219238845,0.82978629336314402,0.36900067328068381,1.0410574976242237,0.25198455499899081,-0.45653892750578828,-0.25016615669297193,-0.56535971837617949,-0.41050852738438354,0.60442189287655956,-0.45015287265783732,-0.6664895767785497,-1.4199278432850873,-0.29982956822468942,-1.1876982462669576,2.0282054188049248,1.1325730332402903,0.40301122818571172,0.67860844678998544,-0.96991721913578599,1.5873929847095938,-0.65839725805275284,-0.094984443504243024,-0.75150603213705025,-0.3948299941481076,-1.1597833160363971,-0.63476621455963156,-1.7033481479857822,-0.31410953061923064,-1.8111102645481794,-0.064935199141415073,0.97000686941747871,-0.1212525402855695,-1.9226137411311974,-0.011532550147274683,1.5895668064139079,-1.1311775056673457,0.4377961773667467,-0.47981690552440753,-0.23803638541899799,1.6889632205131382,0.94104021297110185,0.88133116136555945,0.7173259334171167,-1.001164347638235,-0.24336769935710945,0.76807719534375407,-1.6612605207786744,-0.14566247494098283,-0.6984241658701168,-0.79602002877646527,-0.97518359839355961,-1.0625581950037979,1.555412779624658,0.40737577846724976,0.76450485315587791,0.38794835480304529,-0.37196031255621914,0.79050026332742773,1.3030885237664773,-0.87455927945472589,1.7011635077059737,-1.3432948616969287,0.70087074822060702,0.85769719102218944,0.36183866128873116,0.62657489797525212,-0.047019616646660427,0.72489420384225689,1.1733729127837775,-1.1116062585526594,-1.3079313175321865,-0.1726251210279138,0.50214303986700071,-0.7017437576638248,-1.7156716950707513,-0.14225967723297719,-0.35608385034540357,-1.4777392746211573,-0.61712300687303823,-0.011308121495477025,1.0089034019670593,0.76386099162121524,-2.4062805364243376,-2.2930821713795666,-0.34326262996223189,0.034780125654728627,-1.2727339099337782,1.8221875013170774,-0.087173370038944015,-1.089050615880055,0.45038608219627407,1.0848200845115186,-0.40269956861538492,1.4542308488006337,-0.081217814876099192,-0.79206441191900534,-0.96870751953615852,-0.47419639275234754,0.72221698684899271,-0.34587200835817716,0.19229554699105489,-0.58606066213762531,-0.031360822592081679,-0.73379084326033239,-0.27056914788436787,-1.779272376007516,1.313218639040185,-0.26401639346293471,-2.0436250256509978,0.23202530539068528,0.3949699347245969,-0.34523263846826363,0.29686238639128948,0.6669473138330535,-0.78573620845039083,-1.5240806711601658,-2.1923210368944455,-0.4161953781610303,-0.39633918318890887,0.55462496326989097,-1.3889767619921556,-0.88395151906992253,0.77391349331977433,-1.58775592591037,-0.76560240165494298,0.85578283352458706,0.66722063868999149,-0.95470010287500218,-1.8773407046889599,1.3286962642378215,-0.14828360593657972,-0.94507404840484577,0.61883983443439317,0.1614646637960894,-0.78976168680720127,0.42719341255684673
0.13677110938047182,2.2711506840150384,1.7024952896873264,-1.2933268227105388,-1.141466714306937,-0.82395318350930258,1.8936170192660655,0.78801861111784666,0.17576711062842956,-0.48205563286966852,-0.8679447407327372,0.1533817673970474,-0.23694734559517572,-0.59733437398151246,0.63870247386452317,0.38489508881082357,0.99975567564924517,-0.4387019396578194,0.73531020354729737,-2.0384638191912021,0.25696569134738773,-1.6899892439126507,2.5616166167304377,-1.9650651723759092,-0.68314254667923602,-0.88537188388285848,-0.1737669411169436,0.15222854942586253,0.2100302782504575,-1.4978062142965276,0.46854279060796117,-0.60533976558434377,0.50230321755978569,0.42832507838341632,-0.11562194605925562,-0.10168412188490386,-0.71886697765025942,-0.76691092172152187,-0.27214991445618858,-0.14978057434402786,-1.0890945606195002,0.34908082117784733,-0.28334896729689835,1.2402470519437998,-0.640610274411481,0.72449390927126611,0.076609336388007793,-1.256066416363151,1.1918691344833146,0.48634915515547378,-0.74524331377755493,-0.29553910901887437,-0.028874394521036181,0.34955973116382372,0.33053824384027253,-2.238610774712408,-2.3641722422278111,0.2169228555155768,-1.1162330955460107,-2.6987726035949677,0.56626071629779018,0.36178578535187067,-0.1248454756719482,-1.8474921113751521,-0.38201010962126491,0.36721044771336014,1.1136340400818519,-2.5277107486947772,-0.026168824201059239,1.7542397930909801,0.3819283580807103,2.0604077105820604,0.047928872350089989,-0.8039955362696668,-0.39806395856829385,-1.2700325221414339,2.6212069670853722,-0.079497128109610779,-0.84513620002375678,-0.31466696585376769,-0.96997767297598192,2.2568841013227074,0.74097873089372224,-0.89491274226726425,1.2550807749160291,-0.031882483874084953,-1.3137573867474788,-0.037697250732361985,0.95837006814878378,0.77385359396261544,-0.52464249510240391,-0.46294422922072026,0.74304662894436901,2.2888005343171849,0.64250320075834377,2.9272554251919862,0.63977975728589176,0.89162585595754273,-0.38072775827099586,-0.12594777969793963,-0.89168231238970896,-1.1788764976446255,-0.64411207013057059,-0.7343169215118488,1.0964892502815275,0.88032588318186544,0.1072697922127049,-0.52310655138440143,0.33007191182168255,-1.257549275423026,1.2466206207038688,0.34100073602238118,-1.505679835859691,0.70895270301710855,-0.043268863104881913,1.5156668051976112,0.043636864287024513,0.14974615835133781,-0.78101856823197102,-1.1476400582535544,2.0031674628951914,-1.1234564858962777,-1.2472387055185679,0.31743597517467376,0.96644089758360818,-0.016716023357646295,1.913744893859723,0.12834607679043708,1.1530093713299958,-0.33984827648198473,0.43182661518625576,0.72182732965812357,-0.77451023242993999,-1.5702892765654581,0.82136386821661822,0.12423314946652736,-0.64116217677510023,1.2107414956157605,-1.0997027318675969,0.48116096728845204,1.2941286171729947,0.24609675682565779,0.43175171243204979,0.027029337802773015,-1.8591481421700564,-0.17303515234209021,0.25555024850770836,-0.67745161293680223,-1.0964573670777009,-1.1623430719875301,1.2213605723375034,-0.022933718706796852,1.1146477352743627,0.94460557695999769,-1.661911647603173,0.10077266266840799,0.2119325768071188,0.15189935791442125,-0.27759339424264101,1.4213076822868731,0.016321238944100497,1.8753602364184476,-1.0134252721649324,-1.0206291428412986,-0.73987436506835746,-0.1192406550898749,0.3804658902610677,1.0586787695200073,-0.24444827442457712,-0.57202437348700674,1.7427067091295387,-0.24613485326660289,-0.1270051333230578,-0.54144454556275157,-0.39112398929200054,0.81526238121761585,0.21534933280550372,1.8777510033536686,0.57047231564211276,-0.14718046525216438,1.1313580506720993,-0.54221850987247078,-0.10701902554655687,0.34500801704020295,-1.1387596241838203,0.16907992766033428,-1.9941315328207181,-1.0713420700967562,-0.52143185136200465,-0.55030103348145443,1.7625214696420357,0.12556153087023858,-1.8482455918714857,-0.21262282016861705,1.9751220626116575,0.71531900865115694,2.8651775482761397,-2.3321894697144621,-0.10430950601711748,1.0069109670788288,-0.30383205084244175,-0.092057846926457812,0.84029306407845938,-0.73780438598674913,-0.67382434642112154,0.28716466728701018,0.29892274100292954,-0.74236669393242061,-0.27893330872715349,0.59927386693961138,0.39896292819256901,-0.53794098776857291,-0.36302914894828336,-0.51351640517091901,0.5939955919867892,-0.5100491334625793,1.0721761141008583,0.17489798683147462,0.52972583485217861,1.6800458630606883,-1.3240717559756148,0.18471496680116573,-1.0270083049084724,-1.1141794498861262,-0.38827676295735464,0.082010859702674022,-1.058931228010153,0.37129186065551573,-2.5651288040195368,0.01139620504637372,0.28579667491832494,-0.94611170808514544,0.01088716856282885,-1.5466455654742448,0.39109381478111788,-2.1410494826125572,1.2266548653421894,-1.3338110077575802,-1.7024654124052163,0.26339078830063767,-0.48943063343931487,1.6745122772111232,-0.63541493946212746,2.426286165200163,-0.50613698272124741,0.41019422674163447,-1.2948447355121659,1.2061328690647226,1.5016262683573036,0.21429310339473434,-0.39349076042989317,2.3876346400930935,-0.35481747656244866,0.90491546452576843,1.4904665396070427,0.27062561349991893,-0.32368270287241591,0.49369624167019482,0.87159276565531019,-1.0929271588178522,1.7224988719730536,0.44272653893922487,-0.22656645324274968,-0.59556124122531751,-0.15640644064733586,0.75874497257586193,-0.55033964112292333,-0.58982046563683976,-0.92551581857387233,0.62135960655734301,-1.0664236862339571,0.15371688091343327,-0.029015360855549167,2.1642679687895621,-0.48204725176174346,0.47185039913877275,0.52470893122931217,0.8254590151858332,-0.16807228295032081,1.2121559305958947,0.21110232767225995,-2.0244215139073463,-0.42223229419294955,-0.25450435887810513,0.55640693303283095,-0.4005968918173321,0.28502442443910891,0.51268663671717685,-0.83293317104725084,-0.64384002443629573,-0.14657140657245932,0.89671234959439339,1.399731203714542,0.033336904755668535,1.671005028369448,-1.3397337060931109,-0.85624009992027339,0.1471431966999161,-0.63377441544493551,1.6646911247859317,-0.031142931521371965,0.64929774697983722,-0.27653956278566205,-1.2674058083216986,-3.144164391386862,-0.59898701780102337,-1.3791356784682796,-0.47295173726172496,0.028522627366966664,-1.4352236498965192,0.37646725028929418,0.96502134058197919,-1.0631458381677257,1.6552889022785964,0.18498097340320688,1.5613553001899103,-2.5754882584510304,-0.20370408203002052,-1.6708936668912555,0.1179220763033326,-0.30679734456089469,2.1980942390714215,-0.56819012461592056,0.79163917084836444,0.24885617761259657,0.10551882712438602,-0.51591115062143633,0.77177876746937413,-0.61179806778090273,-0.39321837491790246,0.17589167297190417,-0.033763923505122209,-0.39818058329996114,-0.082714725907370945,1.170725575614179,0.42512791965489749,-1.4932965787106718,1.4923102916836561,1.0375687494955026,-0.83162460676463934,0.91767229089265712,-0.15306952707764607,0.053679225238561522,-0.15817562308713026,-0.49548029846387792,0.62814574038117454,-0.26422061481653414,-0.97868126770915564,-0.66451352879639891,-0.48571807906939096,0.30462377819070363,-0.41074902037753663,-0.78978507763896455,-1.1835034435265446,-0.97080803155416007,1.4903109431942398,0.094210806888626195,0.0030733437349175011,-1.4271382294140902,0.34553580305597675,1.4350407816235058,0.0021708179365628583,1.4747055265447204,0.019525453297583407,1.2026513710334343,-0.22910477867321391,-0.21465769188716058,-0.0032013646241909398,-0.317558584735258,-0.41307922977199618,0.37412978824462112,-0.56437275338140136,0.34394391610324571,-0.94056609754026488,1.2284814997498319,0.11188801139754463,0.5245795445920739,0.93927896271387379,0.40644520379739396,-0.17557442178709787,0.40542800886401303,0.74721014268975705,1.3300844788232731,-2.1570862837113327,0.35237366175602719,0.2260826917428897,0.71628337254116958,-0.32882479627189276,0.80521750829523031,-1.9898533995850929,0.88758036630757575,-0.35155935415314832,0.54147249157716559,-0.21862716739229038,-0.25296857020417696,0.55894734071539953,0.24755938612938114,0.60516300057002292,0.29310193554957975,-1.5497916559953386,0.45208436989852968,-1.608809213756075,0.09319335903978461,-0.75212556827118282,-0.93546051707038969,0.27535218721625421,-0.60953698768910858,0.29522950270259052,1.8982730784951571,-2.0794882128906464,-0.25554476556265193,-0.96400788234213919,0.99789844968709063,1.7240842348350487,-1.1287521255552453,-0.98668652129616941,0.091884777411664315,-0.4923530524942743,-0.6081589636894339,-0.7301769215456031,-1.4083273115551798,0.34989510031835341,1.2715179617980292,0.025339860155644236,-0.69649179665563909,-0.22159942741525579,0.30261146160286867,-0.62400880898276323,-0.64847423179464425,-1.84331985708309,1.087076794865284,-1.2794843155614912,0.36002252629125686,1.0150895606445074,-0.43696839683209454,-2.0377650451327618,-0.35575257762324608,-0.7104140295791439,0.56621412738113597,1.7714714492533248,-0.051530579667487954,2.395283880255592,-0.32342664109637231,1.1323606564272035,0.4284805878284319,-0.53269443748139145,0.073140800242838588,0.7753279655694757,-0.3379320405721461,-0.27027154607072923,-0.86863697432667397,0.14552017226138933,0.60922048738118073,-1.9632737223853263,0.2446503173235168,1.5420982746570515,0.085427233285886403,-0.54903597386130487,0.70434278544112783,1.4345404021082808,2.2439526142683963,1.2803364760992573,1.6682548929100092,-0.0059783658707908425,0.96250288444590582,0.76000312571123985,-2.1630561206444638,1.18464442521712,1.008956374760519,0.66483391105843492,0.065483124182904265,0.77602389909924374,0.93546565813390603,0.089624302932400202,-0.80597085010887171,0.67107969676098567,-1.7668211090211479,-0.42834224637896379,0.31200224292328871,-0.74755137195934662,-2.3827056809185208,-0.073363057256626105,-0.56648599071048256,0.72213599761915837,-1.5272427429816282,-0.3417714274603787,-0.5988999246827803,-0.53772115114037855,1.5342829135884026,-0.66370180444605353,-1.2823760637489734,1.5098266173548716,0.76428950393501727,-1.0907216355939473,0.3082945660387722,1.034534892155361,-1.6395654852109525,-0.6495590437022799,-1.0913528168809115,-0.44768839970331814
-0.77823873293141665,-0.59517855499314587,-1.7858072782627883,2.0478996263784666,0.27108619664913869,-0.199511613736753,-0.28549578722569646,0.080106876227325721,0.41426881570235857,-0.63014415719634842,-1.5785772027140546,-1.0544254675395721,-1.5509390907735634,1.1663580942003031,0.88646940222040116,1.6472087441783394,-0.27839218141469674,-0.65610826059879124,0.97763339376149327,-0.23949895152089837,-1.0199081565028121,-0.63232398124942046,-0.012963850289527292,0.092911293978039822,0.16068077823653229,-0.63952528342972947,0.26819133051284111,0.39119479721134237,-0.96675338757320339,1.5138892467767733,-0.81421650032271342,-1.3190554799474772,0.54032948276310966,0.305083608957395,-0.67955371097229933,-0.63843783369938978,0.1328393157084998,-1.1012814815284766,-0.47727061928411529,0.53885139504809432,0.89121272226036929,0.78634794267247099,-0.061506569153400081,0.20211254079801699,0.14213134757033774,-0.090119342625326171,-0.51318719463719731,2.4560586271189657,0.2822364631534876,0.33803430848198956,0.52925867534868642,-2.0514216830059868,-0.54458511123621844,1.2841584249285947,0.14859937741676138,0.22136570775896641,-0.072560051475326778,-1.0082113369921568,1.5282706308010807,-2.0846959878264024,-0.92097346584706996,0.32646580230934524,-0.44901875847022021,0.079968302017990794,-0.15701434256069874,-0.69417258301433593,-0.3428301149910265,0.8175367443926973,0.12493391132404766,0.16643159654160455,-2.3679813976605617,-0.86195614947513977,-1.6275319632348495,-0.32875794883705578,0.071537403722668091,0.79068195686109444,1.0128021085037413,-0.59335591925183551,0.32201674725577506,0.4720654924745501,-0.74121346535474175,1.0212395144891091,0.1474472391281125,-1.0416079626698138,0.43480471715815078,-1.4618161216719052,0.95990294730787329,-1.5053276883342142,0.59296568489828694,-0.87011279848589063,-1.8962487499281528,-0.60882221881742382,0.74836570001085889,-0.69847142912558857,2.5162324589609404,-1.0594325490637888,0.19293914147437261,-0.56141052057290952,-0.38924926030298213,0.95220808478819086,-0.31016395113555789,-0.52354650071743092,-0.63743284410263923,-0.7543237853149305,-1.3987846508719071,1.6031026724166371,-0.093032377648185186,0.78245030252131953,0.31384555388911806,1.5859605320638244,-0.052180332059296536,2.4759709561285344,0.8447217446607046,-1.021229502542836,2.6860920587507677,0.58503638504865629,2.5526075346075987,0.29485246621210931,0.1556452481370067,0.045756480776461932,1.3198612313822151,-0.64361636485749607,0.83110012554315083,0.84797773277331789,1.3652741975188376,-0.48450591592641656,1.1552216979638812,0.83035519063145691,1.3340642787573769,-1.3259090875983777,1.8011560553461554,-0.60164448230376888,0.26911197132974035,-0.30477788184053595,-0.033182818602019021,1.6018084664669687,-0.055357175672303728,0.328367387510825,-1.8487310958465877,-2.1399221664898205,-0.45179051600477543,-1.422021134347889,0.15828637962696579,-0.83138754124208281,-1.1539649596661836,-0.499435733202239,0.29361037166908482,1.6283698526044568,-0.8232980465181915,-1.1807325185911894,0.34896150481509891,1.2112431103341106,0.039942906953576905,-0.39099147474322121,-0.24286834290467474,-0.3402263945338948,0.98282951363507742,0.67721918975803885,1.8316787607756067,-0.053338307424180727,0.53122626468580558,0.582811699125657,0.29540699438893642,0.28170101848261758,-0.096341658589175094,-0.81634372316199488,1.1775853767820448,0.14158642107596367,0.63008477988557265,-1.1158920354173256,0.10726687503144443,0.98457740715401176,-2.262943270685966,-0.16353953443429231,-1.0801567382896249,0.67203032368675308,0.055484457498126132,-0.66916922526263489,0.048407261670137348,0.42769321327615661,-0.84735694180278898,-0.3391854246486552,-0.57174098281771479,0.56419228348853168,-0.3976176463547974,-0.97296432187980286,1.9345422307930611,1.8533676013633005,-0.68857695476204217,0.27568220507765834,-0.52569887264113824,0.94425166215715728,0.99895163921949126,-0.4841069764545175,0.90944624709062072,0.29875183850654258,-0.9110871364232288,0.20726804593110593,-0.68850873232591481,0.6992948039972291,-0.97246522022000159,0.40993745944625753,1.3053669200864442,-1.4028458187785511,-1.7248220994115555,0.77408221782592868,-0.56786723970473396,-0.75472445960723367,-0.54151322980526106,0.12129065617303915,1.6594955357147263,1.2067406935419076,-0.37298563921779859,-0.8548008969870452,-0.17973694279212002,0.28139366345417233,0.60445228797123085,-1.8154352280631634,-0.61070148882751873,0.87381324039253705,1.5994822835081124,0.60443496805671471,-0.18753738451198165,-0.6753086528341119,1.5301586121637354,1.8324645411963378,-1.4003562510271601,-2.3034999740839468,0.20066511711738588,1.0035887363785763,0.51219464170663476,0.086741491826984304,-0.034123125342411957,0.39972607979136993,-0.33254368738970674,-1.9611622047401105,-0.11488401991663279,0.13592316942886407,-1.5067418001961816,-2.0192017758736429,0.37550287427405976,0.021280165015966367,-1.1092440326086392,2.371584946212701,-0.71592497619236328,-1.2829420889648124,0.41281363735691828,1.9298774772046603,0.28969138544675227,-2.0816410711890541,0.27094808650393637,-0.9812545194980874,-0.053838804257255554,0.13939639876447671,-0.6479651993445309,0.88014932574655813,-1.5397289058729478,1.8260988716849926,-0.36058745140253007,-0.6636150026286427,-1.553233557246769,-1.2243017862097449,0.81859208095856106,1.7048034739048041,-0.30308497024723885,0.088695292947650911,-0.48815297310144101,0.70289010206302949,-1.1636569754714035,1.860859857080235,-0.95017801322067019,-0.50605696719040383,0.17459749131845054,-0.84137631570497817,0.51283198051633172,-0.63678189667582497,-1.3825172570409272,0.71395901992509114,-1.4559761688474728,-0.014127081671894033,0.34853666902957231,-0.42407915458910722,0.99010387446222303,-0.44927235263376819,-1.4590954000752576,0.45882027028227246,-0.088887921136239376,-0.91500755062941275,1.0417931793307296,0.053263314117802892,-0.35156034636155487,1.3372887917027783,-0.46638424133204126,1.0770264373937914,-0.93341152362658475,-1.0666789503571363,0.26677456292820828,-0.60793366580497588,-0.55661289883989107,-0.042432583568086886,1.5402630522803193,1.0203119591279337,-2.1975639087163792,-0.33724645556892519,-0.49056219154155895,-1.3720683120182371,-0.16067773780267308,-1.1428990894334805,1.2456415951697588,-0.43895058403449144,0.42996102523767304,-0.23947750258495859,-0.29191783606267635,-0.18046634525710056,-2.9305861858323636,2.4659377281535559,-0.6832037171765496,-0.38065886404389582,-0.11684205443855114,2.3823233901293439,1.063357745066126,1.1038804181605402,1.5092308866888635,-0.10870055674248311,1.0194531837057308,0.54451061052544292,-1.0421915644427837,-0.0032427932684834975,0.14476586504641784,-1.2145726967555508,-0.91628641561043889,-1.4414749080582951,0.27451769006976051,1.000435510610399,-0.96767777386608533,-0.099840954206330212,0.39099910761486945,-0.84839160908990252,1.5623819585992422,0.72294079178870074,0.92493579511430246,-0.8821405206787073,1.2084983870931001,-0.69408196581397519,0.39935455339773851,-1.2688663812451899,-0.14647269871507715,0.87177489193551594,-1.9010188257804472,0.67891737779571604,-0.55761752669626463,-0.19619175111764839,2.4436365456529985,-1.7748922605981508,-0.17856622212828932,0.08805211027853084,-0.70535502057755939,-0.68255801764690904,0.14745268351207899,-1.1683301000161417,0.77669441261551275,1.901863911242669,-0.60545376709837273,-1.0503546820296861,-1.4305162311678168,-0.18960265070235746,-0.58525601512118575,-1.1009251139819973,1.3293866430288079,0.030072777236082222,-0.75056777896025861,-0.21589380514341802,1.0468874506458308,-1.2575106106410183,1.4523320509948345,-1.7710534790176908,0.17806011821240497,0.22807873062920822,-0.60773670138648106,-1.557578441178586,0.17724507167397732,-0.85807899147651923,2.7533719571839441,0.18407296195212597,0.36105921241796418,-0.37980220036536144,0.45064659310445049,-0.46914595526358399,2.0186106774025028,-0.39090874228652511,-0.70218274425804073,-1.0116303669513338,0.4028247473910187,-0.63945771574142085,0.73635183000536486,-0.78199141359983293,-0.94437896997060322,-0.95741375480155588,-1.9042844621029733,-0.59969725264459484,-0.40235544042198473,0.39896458947224289,-0.40843254433505682,1.7686854874097238,-0.42540092666723189,1.5728542818339932,0.33960013637797787,0.46649661789451974,-1.2064357970543487,-1.046640580406986,0.16240127529560058,0.050456022785000811,0.75045089368473583,2.2393302370850203,0.90519007652661398,1.0124608748134107,-1.6517067287214329,-1.1800963115054555,-1.0367845000310687,0.3234218563381836,-0.90753471710039313,-2.6717662703618994,-0.71372420970200978,-0.027221420460755957,1.0440395601058743,1.0542989323830512,1.0043487004937586,0.18509716285349259,-0.085671122067309841,-0.10376144246785625,-1.1936001386214845,-0.30218733239220091,0.13634850914468832,1.3546251178303987,-0.66801423539658067,0.53907585222247256,-0.53338290180136738,-0.73258816965478379,0.95169868853972917,-0.40405732626970348,-0.084102045771477146,-1.5371533649634652,-0.60651979377078669,-0.80652038824959227,2.9910535311059876,0.30450145422233432,-0.32935921399124363,0.24493778328428881,-0.66465635822457048,-0.67458558279353042,0.1133696344915124,1.9931057082369312,2.6520627635698708,0.28591465101870694,0.29042345935900155,-3.0101910606988667,0.73051243573456803,-0.14595655477299396,0.80296047044993901,-1.0332485743899784,0.49826588686788403,-0.39488380635218184,-0.75131455234744471,-0.97844203716917122,0.87836033559560867,0.36458254647673116,0.83756518443553363,0.25337257481374065,1.1434479187856919,0.1672165219633146,-1.1393594532679769,-0.62849656800001319,-1.2670775448218845,-1.2689206397571948,-0.45831989030596892,-0.94851809538750731,-0.98665008121457165,-0.59003148377170256,-1.4378511176733835,0.73039458750966657,2.0130893079610508,0.32052114118464176,0.53181906904711984,0.62359207485744528,0.22684843654834994,1.7796318290487672,0.35296464250778703,1.4114300831714583,0.60656761336673615,-0.094958069002180373,-1.0780933828758252,-0.83504734711942352,0.0097018186980525958,-0.6121499716687232,1.1168511244277435,0.56614644215146992,0.041932143759667279,-0.79551764237642264,1.1124061104874463,1.1384990360956753
0.86414718462441564,-0.59394007748544508,1.4885555549709142,1.3443764932624573,0.59945972432426164,0.94965217934571189,0.62006100117257423,0.67207440807655705,-0.27142624515904196,-0.098624060975895475,1.5411665221545701,-0.10667261015927725,-0.33932932112480152,-0.4955582476365088,1.8531431001763845,-0.50648975224383197,-1.2822707014880932,-0.39545011531710778,0.96585595882977093,-0.46192269505249928,0.29716806722288025,1.9184962443536862,-0.74000427863674889,1.4207043741731464,0.088438462905975471,0.079728519009503077,-0.21279385261742501,0.74081961300973309,-0.75937263514262665,-1.3003354919512113,0.95994423887380886,1.4701359857621843,-0.00072102893275848305,-0.31236357868003428,0.6297700199104086,-0.35176501632950574,0.75747875514446084,0.40344361065818279,-1.6396448669136388,0.12997023637522592,-0.5273942240530326,0.28604081863619846,1.3813422424110837,-0.77811977867419846,1.1703972617322547,1.1929156862215846,-1.0958596666039602,-0.77221711726318709,-0.2460792688372303,-0.33184001945933078,-0.24829983576806436,-0.41548467254198423,0.15039063376967229,-0.040885973886763335,-0.67483991932526743,0.032181519233272601,1.4939128700476485,-0.74758169429988619,0.75523843342100916,-1.3570850431916976,1.0762412453535708,-1.7748316814281351,-0.25976644340035671,-0.41009353127357612,-1.6701824637216689,-1.0439084728989085,0.90352653748596101,0.21012066496020729,-0.47268163660345802,-1.1073767276179349,0.25315099600516933,-0.77049539366673947,-0.013872223448601661,-0.21219085585587757,-0.90683892335704264,-1.6533468087233298,0.54378424732538444,-0.65156959926014169,1.9408993583736258,-0.68865290438255844,-0.87564853509082508,2.0678604668274221,-0.52102039785749255,-0.34278136893633337,-0.16321958885350391,1.8881713774476203,-0.58155159598632211,-1.3614467059891244,0.26691304341429561,-0.001884593744374681,0.69203543805237722,0.078776289830168225,-1.8838026058250816,0.35881194169497416,3.6482232488860609,0.29302439366827715,1.1900015617508333,0.52214081241818511,-1.5995045046924006,-0.34133116866650609,-0.90456847428749521,0.73585057866804671,-0.87173902340909282,0.25925411110594854,1.9510844033885764,1.41993599713117,1.3852795218251797,-0.7493350229042981,-1.1197166458009511,-0.90269275441746599,-1.0616761896681957,-0.82022113873881941,0.53449275483032987,-0.18783774669231323,-1.0391978763027194,0.60239780557549649,-0.33272043906242427,0.93009973354017061,-1.3645598940442381,1.1561448646244137,0.57296247015571866,-1.6064753619675403,0.07397393772792224,0.85146826113715635,-1.2571667598846541,-0.47445703806283757,0.27729648793002309,-0.79277008799682758,-0.67031875122988416,1.3181479096942421,-2.2109778975595518,0.53349562903412617,0.771702805606997,-1.043130556975483,0.19189546440662281,0.85006295072933002,0.77827134774750806,-0.28084957453913828,0.6898341734683282,-0.070845881875954878,-0.29819596360886153,-0.26314320470271424,-0.66733504748271744,0.65903784793141518,-0.71678512924214399,-0.032712648360108211,-1.5208580922089978,-1.7353842490234817,0.29640506029991065,0.34914800698320958,-1.6174890899862815,0.56332285523087289,0.76916573729653637,0.6309779118718869,-1.2482202970123351,-0.83675467880744903,1.148917354429158,-1.5199948599106023,1.2868277376850381,0.64092402501881385,-0.39973644629854943,-0.30587701645984461,1.899721481252278,-0.35110641589607977,-0.44877410563782927,-1.1123243340174958,2.2066363027668459,0.84405919179756939,0.53027096615839464,-0.24905169940005858,0.95835059646906973,-0.48715146765890527,-0.059254219568638224,0.49649091274707519,-0.34212578073662941,0.47961039183851412,-0.37873290645763719,-0.37173924877134729,0.16382942154568408,0.24368993715044532,0.043841280989295225,-0.26642328987196595,0.56777144606646157,-0.28203383072766147,1.1742890928571268,0.26008062023595874,0.81949537609483258,1.0979201112031411,-1.9688560865379205,-0.13777691595504479,-0.14935910857783746,-0.33382705030033721,0.81344988520327566,-1.7983795305581898,-0.35872832299689761,-0.049957491304661927,0.82665397526752182,-1.7127394161342735,0.32129253935447033,-0.3963496940279842,-1.7338423149827964,-0.035334614520853957,0.16813891117649402,-0.46944873398102899,1.126496310396262,-0.36852318472733131,-0.056620510489154438,0.9258186273994905,-0.72849441786890579,-1.3290237887464684,0.73939281071365837,0.65485465767384621,0.44079667980963283,0.8428486092070846,1.8433200654922,0.89390074444523604,0.62417528369209963,-0.020665702288573819,0.39122488862817073,-0.95543399799559581,-1.915163358931862,-0.98531030919268237,-0.56060576606341894,0.28081384134868265,2.6987036069227055,-0.83922965149894635,0.55401610920878952,-1.163619197674566,0.42465265726564344,-1.2757593622979699,-0.6661333076299123,-0.91206358487010253,-1.6609468454275371,-0.67516255395878699,-1.7649964767467405,1.6056147231062994,-0.77520366557384479,-0.14897882259307019,-0.0016562894247680437,-0.83878696207349168,0.58941123564957953,0.0092971575264359715,0.10643471785031307,-1.1535540581918278,-0.91950854698090556,-0.38458780910682466,0.99900875170291992,1.030689955318296,-0.23932340735868884,-0.89063678611490249,-1.5276485037137197,-0.47134471605925077,-0.43657417906853302,-0.13722478473086397,0.058859016806124251,-1.5894762664074806,0.41901639369375909,0.88986877857901214,-0.84419668662367164,1.0282788050429579,1.3400006339427732,2.4627218418967689,1.1103791276015957,1.0637231088978654,-0.16613298676236168,0.26970565023871351,1.2649809252278392,0.55741719571553139,1.0047459933847929,0.32028764764107787,-0.11161547328648211,0.92079377125893291,-0.84715559071043389,-0.32555051807475949,-0.86081768620193133,0.53115056626546908,0.15970304539766958,0.38502920902136467,0.84958922074065002,0.75283396455324247,0.30217696428481472,-0.91337407651031088,0.59153628368743105,-0.37344798526260609,0.53937056149438545,-0.46910341615237505,-1.0322900519231295,-0.16744030059619844,1.1397668601555973,-0.51391641283245215,0.57211406994220582,-2.0659363902929115,1.1097077199865297,-0.61807684925392725,-0.30925554473895822,-0.014944651954247011,1.2191852761479711,0.58671425546505962,-0.2734989077780105,0.85046766217149483,0.063694866493884061,0.042587883529110727,0.32723602406509761,-1.6778512151997542,0.80420031877472464,0.15053735175814772,1.3625246246444984,-2.0742811004366826,-1.2128471979627291,1.4544514165143989,0.94045613628039115,-0.057707023387557982,-0.070825578082770138,0.58228401153518661,2.0588230732801609,0.80987439723202903,0.86781791413508846,-1.6689559159505845,-0.92736783622333963,0.90847067645638124,0.10030706677728328,0.56348190933270137,-1.2416128566170788,0.76429932591788452,-1.9186435340623722,-1.0997143116671686,-0.68296515256436385,0.81364635190965418,0.61286368159223903,-0.27943396789933761,0.34850163495057296,0.32060713735591961,-0.77473151767342208,-0.24561082634447701,0.81827475736165178,-0.88339639991801822,-0.054290028332546085,-1.2669881904280813,-0.75414759388318753,-1.233808920778324,0.6442542947026022,-0.15611217539400082,2.1478465340703647,0.88840425903105547,-1.0432259336487666,-0.2336243245001085,-1.3214187732824785,0.92725020592882712,-1.3700744733508645,-0.39349820997287277,-2.1126362744694274,-0.15755205531042465,-0.66172191562184757,0.52276323237641076,0.4741563623640071,0.98337930487546776,3.5926823135491457,1.4358192194394925,-0.7113734554075074,-0.91899576699243068,-0.71223496903053685,-0.77949799341395742,-0.21333209102862843,0.25041187532966508,1.6247192268973059,-0.2477113321378539,0.64477012625181951,0.020575164985090089,-0.28093095736280116,0.52886932327367553,-1.0397014403587999,3.4996915544348735,0.63392459216143748,-0.071455640056387951,0.69064289196312223,0.28921474034974487,0.21914187044107106,-0.29794242521939951,0.60636842842413863,2.374302265142934,0.89885019329769056,-0.59903246406462596,2.0739117489136492,0.18594429432776896,1.5221616722093332,1.0628278228996579,-1.6548668079720821,0.62427190222927453,1.0255058795813143,-0.22958918277379262,-0.54562787228078302,-0.20076163072609376,-1.2147019175533853,1.1180643044096608,0.026842268664730939,-1.2067286538976552,-0.22154317812378926,0.30524564757396855,-0.40762640345127321,0.39128707321860101,-0.34750805778676208,0.29766547258310438,0.65816967118425562,0.049376411092475883,-0.3467180890927789,-0.61229004307175083,0.16498574390532428,-0.45241880466003026,-0.63691169144358917,-0.30759193404392793,0.34864428357158489,0.76352250328410609,1.9727877523542143,-0.34953095532995038,-0.61933058944652863,-0.063152620233074205,-0.5479628885583151,-0.81337844975445295,1.0518537092180134,1.3822326752726106,-0.82692507980623731,0.81675480319083205,-0.73128781829094869,0.69330479178928828,-1.1502121455991192,0.73552704956761605,-1.2095554050205428,1.2282988190048318,1.1580032354593013,1.0926339303670447,-0.13272043109259238,1.8258444586705753,0.10075354261029673,1.4780203465337891,0.98142588042193113,-0.79518656175505797,0.69552938010502097,0.15092465608410971,-0.27284071744117749,-1.4021093730445788,-0.13533912543164051,2.2036015414164267,-0.19415903244872765,0.015928499459694191,0.20928890299390715,0.98261090928189498,-0.36023684759985536,-0.44107108006647927,0.32812253605702174,2.0582457118763045,-0.30649985758048831,-0.12740659411332758,-0.49234246986293434,-1.1301207162015987,0.090491835520269334,-0.17562195476259473,-0.13709134551490218,0.47420813417951924,-0.10483781778102563,0.57662097099393517,-2.3492316901816772,-0.41736181376463577,-0.79299443229135413,-0.58520389822815844,-2.5604883912696592,-0.71218074933496089,-0.36620756654819975,-1.7102767287142704,1.886585494743632,-0.42871279397388534,-0.57184944518262415,-0.40999284586670881,-1.5534574978859319,-1.11577483281402,0.75623078672890209,-0.54619320481755307,0.52286789628726105,0.6415154358648113,0.37845391977032777,0.85310889785152122,0.41991921147786654,0.94126688712662487,-0.59716460694204887,-1.0562610148527651,-0.88971415441903612,-0.31300599683525709,-1.547463728333742,-0.59804892210687077,-0.48271737252940811,0.51472641712441614,-0.73293662680249672,-1.522618693906401,-2.5780705370714077,0.66864509956525375,0.68283022112222813,-0.34446903396575612,0.044289249825668099,0.17035100548305235,-1.0277453931201437,-0.36646920734200583
-0.8139882510380938,0.5454888847624757,0.16743119906864451,-0.26586961886421506,-0.84839352284324743,0.49529251244120176,-1.4303162166692542,1.6530565857784474,1.7842888166221289,1.6160164147662075,0.0017160925870801625,0.24146994704637989,-0.41538525760954259,1.5261985387309078,0.35677481616226708,1.7953228827575947,0.030890394177893285,2.8679095608708911,0.13178358806400159,-1.6449304277159265,-2.0126794978480067,-0.48833566896735431,-0.38042716499876245,0.033862415477181391,-0.12006799632261946,0.11064357383051818,-1.0587040682800588,-0.70260147590156208,-1.0512623726573154,-0.58948729413116374,1.1410572784634501,-1.5568209235914672,-0.20271938308894025,0.98042392215254903,-0.55101766944132802,-1.567543863710225,-0.042060182745666627,0.37396161100591574,0.17151904959755968,-0.28927718793085361,1.672935325808933,0.083787537956951777,-0.56278639739336411,-0.59951166620692486,1.9420874900367517,-0.24616423641715846,-0.69796801051842983,1.6493000287614457,-1.0459988840219205,1.963851899188604,0.9209074532182806,0.35972814061100739,0.81129960445773053,0.30452116126191137,-0.2231430551879543,0.49071654091468181,-1.0989719772365423,0.48128462193732868,0.67765992963011124,1.2534911302068068,-0.89524304371986652,-1.7796436063448569,-0.23288178246332564,1.045578155753665,-0.049637128938591825,-0.37924988454487268,0.46714309817356081,0.43870995388077966,-2.228439408498915,0.3973524957517357,-1.3879343389606276,-0.79825823943204366,0.75761400948507374,0.87292978449374159,0.10624007853007786,1.8390002792507809,-0.88916713475245868,-0.41995080620525344,0.82126912758623571,-0.94957964989300148,1.1289839937035864,0.62664699835763449,-0.866009395627236,-2.0274136688787516,0.54326256529626182,0.50016025078223525,-0.36903807237274144,-0.41781439237038875,-1.0092889871224326,-0.45641439338716722,0.26915874637110065,0.95288811465167922,-1.1241239311050211,-0.64245359169559679,0.24441605083269316,0.78387340922545645,-0.28544482634993718,-0.2344674316988779,-0.67190306323800986,1.3947369216295715,1.640406141142039,1.1993523912081252,0.68399731246772089,0.29242276909021003,1.6283044835274265,-0.35158839711327972,-0.73470956539979881,1.1648297579972524,-1.3590151301028801,-0.28585953610422171,-1.3012092383686271,0.66885995098682394,1.5051118953963099,0.32526743411621328,1.5256094700934129,-0.35490057363216837,0.24700296431197427,-0.31016933651505385,-0.55708364390660059,-1.0145284262285172,0.51938273978136107,-0.02551951952418571,-0.47772577493197177,0.018910529082698635,0.28415093235402866,2.8568245591209354,0.06395657071693614,1.1029787643974223,-0.099243932373265037,1.459299493853055,0.78648799204542452,-0.51236055562167149,0.19729038518823352,1.1298493893268682,-1.1017937347850826,-0.68374996003449351,0.42146195014084836,1.288012950072801,0.24560323140131102,-1.1787449396099716,0.15054694692417514,-1.1546476414455,-0.28529633542304261,0.80479678093125728,-1.2424628525090242,-0.73083447936064383,-2.2001032452296632,0.34121211005353386,1.6011356631753204,0.41450491880695123,-1.4693924464700032,1.0387157481204128,-0.68647988620130873,0.63488887612106726,0.81859247462471152,-0.32637444727168013,-0.31763439838538515,1.9404465005382161,0.79806025512434731,-0.76322671404076381,-1.1045740408581421,-1.5062684781086677,0.10836550298496958,-0.50822758417404013,-0.64819364645408706,-0.32225021628665651,1.4028619834283431,-0.59527814559851244,0.34638851885484523,-0.83970973996237264,-1.8485574069107353,2.8045028957440414,0.24495838539172535,0.30068577489827664,0.82641333615777524,-0.92271339063041646,0.43434275891424906,-1.5291001266125404,-0.09235388997394188,1.773208352660496,0.3348868080871496,0.023082930756873687,-0.17593798321529702,-1.5745722934001445,-0.60335123173947725,-0.69137612318749819,0.79580250792312768,0.66666008833724222,-0.26092770500985102,2.0106003027427111,0.40139125415719457,-1.8556943463895474,0.74689309470126886,0.4370305864051412,-0.79360815910644844,1.2948808064402721,-2.0623543876198331,1.7285761565744724,-1.4555638894117506,0.84967270628229208,-0.033497271105750431,-0.4677324267614586,-1.0703663586341279,0.097413788165700052,-0.014467420982912076,-0.94857814597864465,1.9067425541451843,0.99729662786693241,-0.3357688390083452,0.19027705906617806,-1.1344742142463551,-0.2209340523002743,0.52539498975587273,1.2731725252136805,1.6483386967643436,-0.96740841663939048,-0.18617896894461294,-1.2041726417490091,0.90409943533249715,-1.9708169966528228,-1.890551326211686,0.10382096770949267,1.126797071222855,0.43749883770783071,0.94965111980609318,0.031447105953174674,-2.1653022016965786,-0.73641057167215229,1.5171109894137103,0.11362057231685357,0.89384817362848867,-0.67506988291234715,-0.15288119843061984,-1.2943528199282071,-0.038104189111422757,1.4057246329194759,-0.36530379502497501,-0.32817754937581484,-0.60851689003620679,-0.74273912744413118,0.56704498718258278,-0.43927662515195925,-0.25601181282418473,-1.7770025742126616,1.4214103566175824,0.27147362571838202,-1.2879871973424972,-0.060026799609571073,-0.48449022627614463,0.74807764702205271,0.20356872902977652,0.51918272843136004,-1.5470533158873665,0.61916459106834554,0.66499541221923553,0.15683750670429786,0.047146906193950108,0.10336427754723528,-1.2197362673119632,-0.17419315808344552,-1.7996501747562232,-0.2430175945065613,0.031511161648288384,0.64777493587848411,0.012768040465604211,1.3993755141273585,0.5850577531825818,-0.35181227252116254,-0.36852186062725634,-0.097132139764036243,-2.0423504104632495,1.8528870557493533,0.67597486356581871,-0.39428260080955946,0.31405694331666811,0.60169135417207487,0.75309228769495173,0.29460569498484607,0.82598470802141988,-1.500046209871938,-1.3967963007720772,-0.10932871057445705,-0.35367112534235795,0.59921139360343767,-1.7426286888502922,-0.57813642369212714,0.24123783917295591,-0.2753311934337771,0.17486836114360202,0.34754895622156495,-0.18795070079980072,-0.41380470428220428,0.62545288702214252,-0.49145576711272004,0.95134906485989645,-0.77132485225620318,2.0168402502602891,0.69161765788912899,0.12242745664662789,-0.4491709055359131,-1.2754270392300597,0.89980967794526212,1.3689694584123442,0.25420523132027512,-1.5685031321759428,-0.86642528645895034,-0.77733090836103513,-1.849264195509887,-0.60323927658713583,-0.41429408857594352,0.62334134978397249,-0.19309066564771371,0.52164345755040609,0.66608242452359256,-0.91464058580267138,0.92951698167326735,0.28487741066228656,1.7134638924417314,-0.45864382925898439,0.74968613302587295,-0.23436002391312211,-0.78093687338745876,0.15629597973540033,-0.23134930308613808,-0.026944789128154133,0.5271396467477576,-0.25992304677785361,-0.36974414387110804,-0.24351774984824989,-0.44429293366832395,-1.7940866939861875,0.32442058673983104,0.50454127922233494,0.10815004585593993,-0.021361589862864183,0.32331614931602998,-0.99475692263122018,-1.1242529837378645,-0.22335890184051135,-0.78213441621651458,-0.66868782900958013,0.3527061180732266,0.05778182678268267,-1.0445830539327925,-0.87064332750904672,-2.8595105078902403,-0.22844939365169481,1.0866065199206751,-0.89913919951641785,1.1023597650528214,-0.93961916025461545,1.8784202720280769,0.13095138403675893,0.93534009193580669,0.096488814818438587,1.099124008031019,-1.611605162608277,-1.7505002167733099,-0.87480081663813969,-0.62855703136176522,-1.382116928551915,0.49318546786450718,-1.2742221762764485,0.39723233337229752,0.1436123660301078,0.080390208123144888,-0.74955332504642747,1.3317563382010076,0.26902467904962779,-0.087316145183068961,-1.1992067434129874,1.6165160976639941,-0.52154492273042852,0.30454158157943134,0.13842300833506593,-0.5388831779794242,0.25383907784759568,0.79816306068368903,1.0544291379404964,1.1990887781577246,-0.041732290027812861,1.5689000808687956,-0.6920534696162125,-1.6125982364957259,1.0629559645268298,-0.14256704985327973,-0.58252245352998555,0.92723569978857445,-0.23760986590688599,-0.7629497011794073,0.44769998341885564,-0.22597793542743039,-1.1466824609450734,0.46002875844505403,0.30414357335845166,0.76005079070471304,-0.37314579111319141,-0.41937977323053077,0.13423660276160354,0.56805070537944369,0.77915027992666663,-1.0120479021187101,-0.3112382918113587,0.20965412579059839,0.57624994546313046,-0.39551301511527642,0.70892134289427811,1.4099372595801323,-0.47054075569793402,-0.13704151800093456,1.7189646409557269,-0.52236410222187613,-0.12531194972820262,1.1440865312591009,-0.56953046380687211,0.45133200081217734,-0.61198409606617077,-0.63513007922244613,-1.1206579382882522,-0.16714377518644638,1.6247269093582668,-0.057591555113381133,-0.055042380562828515,-0.090253024455401024,0.29522576643445386,0.33481832024228059,0.039398671389203672,-0.63305811298212455,-0.052041302250642414,-0.35844146089952084,0.52500374940556671,0.14302213192555888,0.70964842516860782,-1.320056036622272,-1.0811825832679309,0.59446821696663421,-0.10742573169472776,2.0390445706463063,0.50781208936002997,-0.27150804473359785,0.46754909559998137,0.45923885387727437,1.1964447740414725,-2.8905342771009792,1.4357599778244858,-0.86209820377772661,-1.8000201383837975,-1.0708721742925864,0.52228738963193455,-0.16758078533469181,-0.31580753710867604,-0.22285304244915274,0.037719148238528726,-0.40377419184407032,-0.070632201267293609,0.69934161645747739,0.85915680773858993,1.0577262847942914,0.88785359367259264,0.71607972876234038,-1.077881578274791,0.53366775662727972,-0.48450406666573487,0.63492706841183466,2.2332730133775431,-0.27265296806877015,0.31334158069341539,1.0364564358868578,1.4797877754417215,-1.2929049913715396,-0.62352876785696998,0.21448452794467615,-0.78163021399433441,0.93592797289512664,0.83053344136089857,0.00040526109714760254,-1.6593283724746237,0.39653138511255687,0.23864874188094062,-0.75616234194181797,-0.18550381474139577,1.2791276612068048,-0.024517066022283731,-1.5077177801104509,1.0107723310307035,-0.19385121036789965,-0.61173761265104121,0.099306915047859629,0.36170601523858864,-0.87406097375564529,0.19774848589562968,0.46119632257264531,-0.9590769893746437,0.46398314832813159,-1.1125394369027077,-0.25673086508928866,-0.34201666136320025,-0.099526547320932121,-0.46617138057291974,-0.1054478002955668
-1.4731603003760461,-0.083920734165386118,-0.10540530691454318,0.47874282489469278,-1.0909058689922702,1.0389630325344759,1.0971467964369694,-0.23668754864194633,-0.47571533469876515,-1.752991437183792,0.70649945766694366,-1.8030178523398031,-0.28126912783068653,1.0291913355542996,0.022185626123743044,0.91946903376701661,-1.2262005790289447,-0.15828193937456184,1.5101552446536179,0.99190317866683553,1.5576025804946174,0.87694060810441077,0.96578828521283988,-0.79441026591203534,-0.7797933950565189,1.6769932372668965,-0.77478456358599068,0.42539388001722001,-0.16240960831753648,-1.1662222532701116,-0.96471452426490223,-1.4479133312205781,-0.67910388043257963,-0.33926468941856913,-0.8080733900488134,1.8484549888871815,-0.12003587603675006,1.6795262671255093,0.35261369795878028,1.093570569672691,0.03142901256757253,-1.246989057743741,-0.21242389718434923,-0.43991969949087939,-1.1429617773670409,-0.9935263300488103,0.60298890327088994,-0.79957173395070924,0.74549943310034705,-1.425066768730018,0.23778714578763874,-1.2432848416956093,-0.43184540404916966,2.0225344307235171,0.79719928396661133,0.11108264989765937,1.0407535352157593,1.2307539242456063,1.2538973876905546,-0.62156930819422518,0.72659104096746852,-0.79335793715163672,0.36315004141093182,0.81098041313423808,1.7947053042248888,-0.1191281267383037,0.77730706159562335,0.47639162788187134,0.37718729783648441,-0.061949618427084664,1.2762941940697197,-1.7248508805207812,0.05728450262393725,-0.30133554162239856,-0.54154570960209569,-2.1182939206647124,1.5886012631850175,-0.45745636102498122,-0.25558637095021985,1.2668002367752911,0.93429238267053472,0.20692491872423524,0.93863600628825183,-0.9108931184272171,-0.056941125361119373,0.61053284794521612,1.2486917726505566,-0.56189189449567256,0.12253408568480956,-2.0230901304327489,0.52918764920592276,0.84645792509573969,0.11473740066833929,-0.55432064911973833,-1.2941993902032167,-1.069445083041102,-0.77614800300619025,-1.7470244686111549,0.94256355400647762,-0.23623161055965852,0.85270688339222944,0.051160473935223209,-1.446406281054444,0.58187876685709516,0.25701774726860427,-1.3476603341750641,-0.39086670094333742,0.26930345048163795,-1.7224901278822584,-0.40771564172389951,0.28524416833044469,-0.28685411949395573,0.58198026906434563,-0.88088641200421336,-0.077362051383388988,0.070230442433886167,1.1475177164380719,-1.8503802009145731,1.527123257350065,-1.413486997621584,1.6710272773998285,2.1698043789836858,1.7047159466076083,-0.49939539126947291,-0.26538532562791989,-0.71643705936879687,-1.0588519818177931,1.3604073052047021,-1.0741892828965975,1.6907410834157528,-1.4581637313782765,-0.48317217381934896,0.22510573166233375,1.1818807662825763,-0.69903946195114264,1.3264110654882042,-0.55827503456093108,-0.043328075374192102,0.12100005729702959,0.32032931526323855,-0.796804849747344,0.029461762533096927,0.83911043131906127,0.030463022323022799,-0.48119738012772695,0.39724488294482829,0.76194835604778588,1.4960266148485706,0.87107772458417498,1.0737045874510061,-0.33564986799481611,-0.53859425630316315,-2.582941472735881,-1.3599601376042916,-1.0993972104400638,-0.29822094610460126,-0.16964816655700518,-0.93123692656999957,0.79160704977098373,-1.2536078806688682,-0.2788014060272615,0.47507686868533061,0.2385767484085011,1.0227569592304835,-0.75612159143879409,-0.77393601558959746,-0.30547243677442787,-2.3708720501987464,-0.85206307464923581,-1.2272060263981155,-1.5077809815569068,-0.5672811051862624,-1.170095751333325,0.28249937882932735,-0.94009662979137254,0.67654999212067168,1.393561738899276,0.4447295323484845,0.65172403224694353,-0.041655967437956798,0.26837842674628387,0.81495445471968797,-0.031502857297349501,-0.62583528597067284,0.01349949900943029,0.28860014219587682,-0.058263063547272197,0.86602702680214083,-1.4159414463740196,-0.58987090680746856,-1.3571325915279038,1.1435152403202835,0.65420824002939548,1.0314015970210342,0.25817378895452137,1.111447105397396,1.1426813332692143,-0.29571036386091487,0.063088860128485497,0.63630470498488223,-0.93917577295291654,-0.46921225370133718,0.41821170721517331,0.038877460437213462,-1.8646681406418837,-2.5406882382182689,-0.20252825923921622,0.57259686537946064,-0.12873437088435935,-0.14643582552907594,-1.030614664480755,-0.16843762943136442,-0.025506609629046422,0.26308313038256737,1.1026414451934734,-1.7044641660431257,0.71528350856915945,-0.67197018480946336,1.8061496113658362,0.57529765746313877,-0.50862386410592375,1.2011755319172914,0.033208744051115326,-1.3546504552334344,0.33311506924043749,-0.19558169372053619,-0.43803424932548773,1.017523696185761,0.47441570913108527,-1.042691434278352,-0.40537709994992577,0.43125892176555325,1.6853207392580767,0.41330875447195747,-1.1084207391651386,-2.2320679948048272,1.4171666698096737,-0.28893153257946586,0.18228569584966242,-0.79363586087344917,-0.85664412098743914,-2.2574612389591446,-1.5471624348667687,-0.30453354084393786,-1.7247247512405031,-0.36300822364204621,-0.77563377027750735,-0.73121736302603324,-1.7250171109854298,-1.5576249857612596,0.22632892785108144,1.262401705355972,-0.07357148162069943,0.95214294022770096,-0.2313177390562641,0.93936205868160139,0.2891515350546881,-0.2532593512909449,0.35394114666519133,0.23444133561721334,-0.22814602573409687,-1.5762464443680351,0.47817335409496231,0.13869153252936092,-0.1974612216318237,-0.60094357708256607,0.59854285929381423,-0.10511753827332711,-0.40379365442761095,1.2662307582997043,1.4738700500693822,0.69665410485537849,-0.50902193502432025,0.21147919997252135,-1.2689349874312534,0.60175259261528358,-0.18439152157586342,-0.45042058206107788,0.060411175857871958,-0.77096778447377379,-2.9081144745921934,-0.19580805467137216,-0.71937094710076055,0.64975397169465343,1.4074029800806238,-0.90849415412198498,-0.73845279718422208,0.44662862674645509,-0.0060224166810816954,1.0092884653975327,0.64954794605400912,-0.54435212413078993,-1.8210296404674111,0.75256394549493899,0.72142270986455059,-0.17112462652655819,2.2450694935154822,0.2823968276834195,2.2589104431791318,0.12514240699460238,-0.017388247266411912,-0.35651759745888179,0.08768237224828633,-0.73798766826855577,0.23172568711707914,0.38907967802119903,2.1735428561629315,0.66122840729343046,-1.4334753728923997,-1.8570537453187195,0.035011925703644899,-0.12578955002238335,1.8202958125023829,0.046226630499227282,-3.0512250187404604,-1.1643896564683731,0.42022907923298974,-1.2358289394934296,1.4420006655456028,0.38369913756120971,-0.45813606640664573,0.51005601737266426,1.4487134655719129,0.45850905629820782,-1.0251511847147317,-1.423779356973992,1.3196049772555118,0.14804358581214813,2.0200176524726383,-2.3668996113431775,2.7414898046451905,0.10504386727918515,-0.28301676437514328,-0.89639261433591588,0.88076533591857942,0.82745481984544289,-0.59522834128686908,-1.2781348907232402,-0.7949076158762548,0.2380384060010077,-1.7894444045644544,0.40727841711186147,-0.67442537485405407,-2.5240513019195188,0.16595099210325764,1.4824788752850535,0.85748310295937635,0.81783034718492231,0.41167465199903108,0.40727770287584131,0.0044216182703669862,0.65185549577976298,0.52435357511976477,-0.28306377548868128,1.904062836563468,0.19253180600461495,0.55857984201601663,-0.54500564238260207,0.14796334316074075,-0.1916079242045082,0.5806111026508417,1.1477626792925908,-0.46943739941492962,0.070666359417307867,-1.6297035488385281,0.8990793453819137,-0.35636162089605461,0.80815918501539385,-0.84931638437584644,-0.23674307536928144,2.0617152935826448,0.091009106821250088,-0.18159520873173526,-0.43705914330046025,-1.9696027154255775,0.050644378470881338,1.1818420695011511,1.3508780817454324,-2.5361264368610472,0.027719780532885426,-0.1526730561134261,-0.88788138343552614,0.81825767366582358,-0.26239009740814478,-0.49153196526560511,1.4820374581630913,0.5397481911758184,1.188463007303455,-1.2427672027843684,0.20602736205446873,-1.0586401196739774,0.063917558937776342,0.52402780797830439,0.65043566627367277,-1.1981749518999847,-1.2732299631746458,-0.53675191904435438,2.0463172146199038,1.2260306660971849,-1.2412185165264438,-1.2618546574982541,2.0719047625672133,0.9963419948231178,0.57425960957672983,1.4338164744290198,-0.56021123461102684,-0.46579366854915499,1.2258855564603448,-0.50649843790282034,-1.0636599674462219,1.1295796130835056,-0.0034949973185975126,0.16169979958442665,0.74046722019463174,-0.7112733989579777,-0.40915259692899647,0.10302332553579757,-0.90067422777129402,-0.65772891563642943,-2.0755781043735029,0.67526821841585005,-0.35288179161115862,-1.7870229006726304,0.42004225333194434,0.99860458875468938,0.14209282448927937,0.62464108979873356,0.71820328589957438,-0.043005999498898925,0.69327908880158373,1.6028927677757316,-1.9030522122227631,0.59610021216661213,0.26046037733927008,-2.5770212365325862,0.095246333369936015,-0.62352779302945027,-0.49107905446068284,-1.9773900700550138,-0.060513286383992559,0.31041766861680437,-0.77079111574530146,-0.62504195239534899,0.30687382052910778,-0.51402606775000181,0.56299676828116385,1.5683067433055777,-0.88451996959164347,0.37214316163575661,-1.0271179682738536,0.69672922076284927,0.14770973281181016,-0.58974596739180918,1.0020495612174023,0.77268578934402643,1.3981367828385172,0.93164484975711626,-0.30497940980783728,2.8064321793803795,-0.27506074848076967,0.26940194907266313,1.6401586965508146,0.16474110633635627,0.88199708245139041,0.70832952505798175,-0.2602709699082088,1.5694701048955997,0.99820032024537508,0.19121576135122184,0.64432798221858767,-0.33975012563324597,0.38634059758642947,0.53285858523072349,-0.046025068781679217,-0.82960288749443134,1.2303942138649993,-0.36624347949525882,0.35715527814590026,-1.1079438184413397,-2.0102728104519203,-1.0642871016044977,1.1615707404326889,0.012556910171550377,0.52228555657785258,0.67022616591174367,-1.9593559897552146,0.069612109857366142,0.97886261483528458,1.346135272194074,-0.030663224610466756,0.73485436329993392,-0.86369656071245182,-0.8190681062216969,-2.433344536754126,-0.71735042878600941,1.2764609629159589,-0.73479783478352645,-2.0119214910781698,1.1094512712301872,0.86491717965032444
