-0.03106731845813079,0.04101759438028528,-0.73427122638531339,-0.87675266838956245,-1.007824335947562,-0.94742631775032315,0.41176759068571434,1.1583435753756186,-2.2357843423885426,-1.2234173233901393,-0.44082865585128678,1.5461381628417823,-0.91926494806666426,-0.095464606984542094,1.2162163152654653,0.59410158178586514,0.80978823928773658,1.4250638854991169,-0.70067900669426375,0.18223990558807904,0.36520211439456224,-1.04352605983924,0.50073013542060085,0.20475683189879818,2.4233274509905072,-0.55825032553913079,1.7276279135608084,-1.8741406800315366,0.60586805485990947,2.0694462784503287,3.1269292390236112,-0.058248856300989027,0.97130581139079508,-0.77888952596155725,-0.58366409261537644,0.015556999686675982,0.24510815127419047,0.33743286201937778,1.2330005105912494,0.64924592510645263,-0.47384082907708314,2.1649988129334954,0.4369065107182189,-0.8407129544172568,0.40056042304189132,-0.38200327025210279,0.80200688587251689,-0.4491945192855567,0.03722309270372836,1.1415608035785663,1.370533844868933,-1.5297433982450637,0.94124014913552068,0.50044972769279084,-0.89267779404867276,-1.3130487917665132,0.13386081640024319,-0.023261426710665625,1.7394035573482691,-0.16289500890021033,-0.96918954392981116,-0.47861734242177212,1.1594613644931682,-0.70667571379071692,-0.61320891428059476,2.2084864259488981,-0.25039573039828156,3.0443863435830512,1.4748895251230401,1.2591028864703435,1.2142449004801057,-0.64896419571240471,-2.481392203745588,-1.2953125219215484,1.3933476658860027,-0.36141762016951196,-0.88998768026787611,0.93490079369895263,-0.31881058676792118,-1.0205675216773549,0.29013470689889298,-0.14895833236342698,-0.99962696901204118,-0.38470786833709636,0.65860452017010296,1.7392100612501158,-0.21113055578281631,1.8399111588407495,-1.4126846879665906,0.054281446554404283,-0.15066491285377598,0.87467860667073183,-0.39864696907971603,-2.3654661721818933,-0.5870313032864185,-1.4007712027476482,0.90603631686782038,-0.29464042597832218,-1.6020128350204399,-0.88878462366960931,-0.38016302508123367,-0.094374992256790691,-0.17236259445555924,-1.5509289958251553,-0.044894592843326829,0.36992324374080687,0.062310478589681473,2.2461095914813902,0.08981734934179679,-0.89325804464599834,-0.84685213681947435,0.70973371209954594,-0.22565593511091445,-0.40990999603742045,-0.058140833950914683,-1.1986828715033326,-0.16690805569614059,-0.37524457710549969,0.26309055594879205,2.2656459936012627,-1.295999194612433,-1.6121133984943226,0.29964170188784461,0.18940219021368368,-0.77315550885701401,0.43468249565156314,-0.098148781313561112,1.3961926096681496,0.011483421259445806,1.0353784888820845,-0.039101816156885592,-0.22003066644635463,0.5112302948171541,-0.10849865653580121,-0.41967355304476706,0.084797120915338628,0.78991154857591428,1.2719321844661498,-1.538928740596377,-0.23582404595498294,-0.66604217692742829,-0.66064877664558253,0.66343460057981096,-0.17531270881939418,-0.13362167203339395,-1.9042272934418449,0.97681135133545904,-0.52786389042205528,-0.24084809232622548,1.8452195716716162,-0.76331515791729154,-0.60684885574112246,0.66889938031160179,-0.10286228212433381,0.76203887347758859,0.93493771894410393,-0.16236883517500664,0.92250965987060596,1.6807676785292796,1.4950515954401746,0.23776352157865746,1.2337679636929422,-1.6915923399763939,1.0223916742762804,-1.8410802802769517,0.25464811494639211,0.38534764801511895,-0.20646978758847009,-1.2042982805494313,-2.4832359083664639,-0.047629606504777211,-2.1215763315412457,-0.12125826745397467,-0.23405075807119494,-1.4595683743626231,0.33155461660010827,0.8712029078418968,0.65020099493653793,-0.6753480832069868,-0.057786604697875908,-0.66489679582802919,-0.8050650745267407,-0.62026469082572566,1.305628229396542,0.36442600775095546,1.0196954967447789,0.71779500006687047,0.90147153366974908,0.17442452200454392,-0.77022709093397468,0.014573401971149171,1.4319529523885481,-0.32131509731157959,-1.9319862404853605,0.22949111905169647,-1.0411135560402951,0.47362478929584012,0.25405836476393145,-0.31020731313885652,1.0882114594749484,2.0595346025316981,-0.86448646765280135,0.025593407563653699,1.1840407946744096,0.6986785548161103,0.37757163975855507,0.63887407160541509,1.7843451292591777,0.51753520251048502,0.9520919689030829,1.692462790912175,0.30464823500736526,1.8416692609589311,0.00074600437480187094,-1.1075336022132605,-1.205840653128226,-0.68250460577502126,0.8865069570130828,0.74876295443416507,-0.17392932628184654,1.0229129317879071,-0.32275011937829695,2.1955291653245674,1.2667364648329915,0.29603610114563006,0.46182779813975428,-0.79335769603961137,-1.0380788485693477,-1.1076327648642805,-1.2166255308704881,0.17696605078315308,2.2638090932507864,-0.54940079047617041,-1.9830624915061505,0.95648319464140918,-0.1723273570701318,0.40333555561795448,-0.73832904858942405,0.017139244715534376,0.088879332054072585,0.50038350942873533,1.6119725635835176,0.12905782668995577,2.6782107563145332,-0.12392399270345171,0.095128768322938595,0.28858301774940065,0.93110890364148713,-2.4029221438383304,-0.98718992298328945,-0.55873947101828447,-0.91900180549211574,0.68917736952671194,1.445949696653793,-1.7083409926618924,-1.6632328422618397,-2.0110625068962444,1.5099922509485935,0.56453531861320583,0.86877544137385643,0.69218936159091859,-0.4582037168291429,-1.1396367297645704,-0.10830388638986597,0.71469717096809993,0.24308701319418774,-1.9669226224514686,-1.1603532028344279,0.7242167253243994,0.75273434896967284,0.75476277055479069,1.2412180249681379,-0.055654339486832675,0.72511119465804375,1.0025421961030074,-0.97158884014001345,-0.08181700327934964,0.58504606013347482,0.002796164365648785,-0.10060185088040925,0.16486256740553937,1.6561807824244328,1.8823079761865875,-0.96188930726138178,-1.849968076931676,-1.6625462818579837,0.4913239927071445,0.5991197642961289,0.58033651231944872,-0.35164575076809079,0.43002870014663991,0.62089744913432054,0.86738993546125864,-0.21463078259718238,-0.87775222123271646,0.016353199778373871,1.5904781708699081,0.43493510942001035,0.93792530985715106,-1.6734571585561109,-0.40348956162471733,0.39281920074159427,-0.47527480821942542,-0.32067091850308466,0.19303193479947964,2.6199078321911187,-0.26029392482905095,0.53635229709399312,-0.79887736823989075,-1.4069518918916326,-0.33454662126778245,-0.23887860054206408,-1.7681515737121665,0.35872016447020028,-1.2975196976938084,0.2823813072397503,-0.46323791536583853,-0.89733461801367753,-0.453411033226299,-0.35318869515850093,-0.53469003419939343,-0.87033818259496054,-0.8361268041734452,1.171821810412639,-1.6198863545444249,0.39573833068326042,1.6615958422647088,-0.59217542651257116,-0.5237194729560134,-0.73863679049892506,-0.59949538404603508,0.053227948061431177,-0.78003522431222816,-0.80177186269779399,-0.98593290262152733,0.84820337235916987,0.33780215020794702,0.14170898291128362,-1.3863495364685239,-0.91846801301212821,0.7737891810084534,0.95489081677280829,-0.86557361546425338,-0.81771425411590726,-0.60205022670349773,-1.2106992817630315,-0.84405707102824024,0.54090880279545761,0.022395908358724671,-0.52771908797590661,-1.5922916401590983,0.48085789618440561,-1.3049481521380417,-0.068702292351744826,-1.1813720780393397,-1.0314348585143769,-1.3246876854509781,0.37068133439063311,0.010945154198860907,-1.6328582303012302,0.96287385788311564,0.9183573509658407,-0.091387952353757934,1.2948522285101904,0.90999599161652678,0.90497932062523467,-0.21262790865897063,-0.22659974800720817,2.6791166527794754,0.51269699603656504,0.018021455195663633,-0.53524177134269935,0.31215312124766614,-0.013035565870366729,-0.054268040579709215,0.43480967599543091,-0.20518778587353292,-0.58724418789552912,1.1210756100966708,1.4872767622322405,1.5299983242576198,0.060660339035460704,-0.23798000630045124,-0.92694394185312068,1.4014809402423427,0.0090151472609040842,-0.059647342786496388,1.3761697761820091,-0.42006084016850159,-1.5254178530117541,-0.61398662911460755,0.42924083683214015,1.430110149608707,0.9350497241285034,-1.9256833589082039,0.65504531298226709,0.42776809060081683,2.3991348749416903,-0.33455915385060986,1.1623563306403417,-0.84376684969536742,-0.040464750540643801,-0.71131156673608376,-0.24722060390028663,-1.0840350181232943,-0.30819888034425702,1.6209613762172048,0.10942721874827126,-0.66601092663090777,1.653728476445075,-1.0500516730471265,2.0703914390717726,0.43031709390250655,0.32877249922466345,0.34729493331349875,-0.1584198478961176,0.094927090049623894,0.34903003118867582,0.33073604654442396,-1.2997465832801143,-0.80092880761050445,-0.38500763453672449,1.3337373598125208,0.58947066765878475,-0.27824511094659427,-1.7954021335529742,-1.1592461425096019,-1.9907441261281362,-1.1977442623546284,1.435217347402826,0.083320852377728849,-1.3376096734507426,-1.3888702745494299,-2.2325165971676504,0.162781389348614,1.3938802283817673,-0.39540595617644181,0.41911813080280902,2.3774130927633137,-0.81271823247613317,-0.083091887765855701,1.9322867534996084,-1.1157976191569521,0.21780754572405034,0.52299028389149582,-2.6283840995819934,-0.018487075981010077,0.4230233911244945,0.50542656988099877,-0.13669645365737451,0.47307088082126825,2.4006195835204966,-1.1523243466488342,-0.17607187140174893,-0.21017235084698724,0.64321883615793096,-0.21903581425419888,0.061522214303563111,0.045401852189740417,-2.5706150923631803,0.38756347757984333,-0.39348394626127142,-0.243666554690184,0.0030386734721767595,-2.095661531098028,0.014505948440600566,0.48706257674390419,0.10605970764108102,1.4598316991578164,-0.4099048400217421,-0.54132072788001151,-0.28912954866720508,-0.19543705363334035,0.1553751169270764,-0.82414388921022208,1.0317332270525539,-0.84630968781798765,0.72093334254756181,-1.369549814039748,0.23613031470714096,-0.039425287458868051,-0.71451555110474485,-0.74505532585684098,0.89260368133988588,-0.027291217048922359,-1.3967606406455682,0.2430861526280125,0.77548298627917756,-0.59087038042569107,-0.0048420229284302681,-0.60227740724535928,1.4117472044882289,1.8318423827646373,0.20495295289196416,0.59900491100266906,1.2655816122586614,1.166364675366458,-1.1401704149388017,0.26330088121678952,-0.25421235415396326
-0.063749725029061385,-2.3985667720541537,0.033923013584560756,0.86836638259074728,-0.4062306954512489,0.70787422576071535,-0.33351305692287014,0.13324581797476948,-0.02575879239061531,-1.3341099348174021,0.46974646197206421,-0.69934619596910419,-0.73120805048887938,1.1334087222538018,-0.098066726846075744,-0.22739763663925638,0.092396254835682187,0.4310050623769463,-1.4736743307154641,0.12437203109664549,0.28531902366389955,-1.8590772290469926,-0.89754366738598468,0.10130220799274338,0.42166495045548863,-0.2822016729452928,0.24556374900071345,0.85631834034809584,-1.3689718698663111,-0.56790259357573203,-1.2560095040400761,0.16847227040505885,-0.95855686973291354,0.43486791145139619,-0.24004134372479882,-0.92932355020454538,-0.10980300713763737,-1.634721140345178,-0.77884724809370143,-0.98143559006952341,-1.3562767939015414,-2.0476769378220023,0.19745040452034535,1.0083001561054512,0.22919676664361038,0.76210642078637147,0.44766644313050435,0.65868861735976769,-0.78787215743457384,0.50883879452539216,1.7859412532950751,1.7807746151145165,0.28383261722920589,0.97038512409421263,0.60977346030127,0.11547593734374934,-0.13167993010903672,-2.768560016362716,1.7142274371571924,0.70215113584161126,-2.6675102582209349,0.20196018092746446,1.7899517825706268,-0.37191398779626056,-1.0811413678622539,-0.18927474830779503,-0.43618994624552149,-0.10958158271129444,-0.77570907948872037,1.89334449343406,0.021315865642606187,0.18807010347328246,0.72020389109485694,1.3108855382584608,0.67719317517974142,-1.0895225279274534,-0.97689236081862418,-0.36097163246997704,-0.049262232712655903,1.8148802711016878,0.54914339437366289,-2.4620863441840206,-2.6686134063169722,1.8043149653454857,0.33073507254504059,-0.21227657877969425,-1.5986615083406144,-0.45347706881096533,0.12939586457305222,0.55063631889486697,2.6447820254464491,-0.15051671693712096,-0.15528803997732726,1.7512339013429956,0.051468521958351034,-0.22925864091205386,0.721749978211222,0.61433232058714893,0.14957414013512643,-0.0098232828814913773,-0.71104614621625184,-0.57920500316719692,-0.091355983126118534,-1.0041668822134,1.3719271478779798,-0.20621416465439449,0.99284114183085082,0.759284804640734,-1.0540730988628255,-1.2363538949823007,1.4249788394214178,-0.7445598622035976,0.28906033149082955,-0.53063162900698069,-0.92023163448299117,-0.97402711613740489,-1.5865976559306247,-1.7317880643950152,-0.30665321604777585,-2.3248000034282263,0.50869468353625991,1.0053191677462645,0.24164491526029791,-0.031697856945159024,2.6478013136101581,-1.5761089147414427,-0.096354893478912226,-1.3311306616398628,-0.25689038906221906,0.69169667337984209,0.39748337856975019,0.30869090800393856,-0.41535766940375429,-1.9108150652880214,-0.39892234338311028,0.51245967100872591,1.2102920732349021,0.32529159243722389,-0.54745180554566497,0.56967830441886336,0.4754426529949507,-3.5332854827593927,0.14992156442160168,-0.46248087471014149,0.37218713519710711,-1.8232367373436933,1.275736340279132,-0.63816839040554207,1.2047563237207335,-1.1890384461114922,1.1941999501064531,-0.026844789210002069,0.23539409272586095,-0.48376163190786958,0.73826472843107094,-0.86029494506681004,0.16887518931655812,-1.8465594298711352,-1.399395059293236,0.11363733249267829,0.88211167965181225,-1.0124550581439746,-0.094391194047488594,-0.35583861512950499,0.01450993324518752,-0.3989674308808811,0.26277631270163265,3.1610483273231256,1.1000681072950032,1.4300126097769996,0.57101492029554413,0.10969822109607481,1.0466800054009491,0.74866144868297868,-1.7920795131633684,-0.55708994126464906,0.78406913320575,-1.4209777954389391,0.89796286935728731,-0.81015869112420136,-1.5379624529018321,-0.31188667229103634,-0.71149079046695762,0.24947592153173553,1.1687286356867888,-2.3822510787298783,0.87673390213509839,-1.6617640741718085,0.63534828712495917,-1.6211174012345901,-1.0240933426768,-0.28982149167475696,1.4134330346438446,0.18269247621295046,0.86051807052446749,-0.22462042074765762,-1.3398956879296653,0.200480530561854,0.6256606891966382,2.2672991297965628,-0.45046018615969752,0.73484235562464884,0.026967374029198271,0.8629610551668222,-0.81083683096620163,0.6042921134462752,-2.2528714289291565,-0.77542347271232193,-0.81086698770600851,-0.359473428077002,0.98448370639769023,-0.38511750416019053,1.0753694354232304,-0.62316150892493516,-2.2366276968384322,1.3117869480210593,-0.47997096979717757,-1.5267433956232606,-1.8490639349961659,-0.45258383663360685,-0.044227941136418522,-1.0841010710810699,0.83745406690994084,1.4951427699437176,-1.33721351492161,-0.50570313962745217,-0.84342591976965731,-0.10489903630561451,1.4061446039943957,0.70267374624194601,-0.98104957275319593,-0.86408480724863423,-0.81015504114308601,-0.7928362782202959,-0.095577797139805631,-1.3802029958046087,0.68349270541941343,-1.6806476897863489,-0.82241026890133784,0.2371529432641889,-1.2923201962544564,0.64051935446922947,2.5248765625377554,0.23270776962225714,-1.4726541776251625,-0.30878353889824872,0.24419555982787,-0.60115330056968397,1.181089293619372,0.12525226614509938,-0.66437706299056687,0.16530590161771389,-0.32387914120875766,0.90001386792300897,0.83519037672959073,0.057964811624348182,-0.27773869341887997,0.099758142273774927,-1.2738079918150793,-0.94242947358833606,-0.36928139490335021,1.2171679658533217,0.28926340279416651,1.4429585466078485,-0.10419144243505199,1.348083565616647,-0.48832904275462996,1.0499345421364541,0.28327112295532569,0.92110714175855524,-0.58691345957071372,-0.017269209753665356,-0.4255970612928115,1.0697328678109577,-0.69043192451102076,0.22013142457571011,-0.8831802943799818,-0.13535548915211854,-0.49314948445498263,-1.2508070600892276,1.151430041498958,-2.0453902903888355,0.52509916869627504,0.18415358760913703,0.69522210986589095,0.56282656282009358,0.36586902829730916,0.63402608469304622,-1.002919206447294,0.1455918703172529,-1.2609397230613291,0.22090042375368532,-0.051938289400485185,-1.0181364722842641,-0.44616401707621756,-0.16327121106288195,-0.1689575499939146,-0.74668557845890349,1.5675650328306614,-0.22383224508309443,-0.62666404513859708,0.79336806765813084,0.27685433967004963,-0.1432579934562912,-1.303981814727432,1.896700677310337,-0.61871308486294718,-1.2159931532708825,0.93404763041578032,-0.93830445360205583,-0.77607055569338901,-0.69979446994055028,-1.833070708853016,2.2678693154993468,-1.1115941374812233,-0.10648683575094138,-0.5709303183010721,0.18407206447085614,0.090888100501422431,-0.96112368589688468,0.40985859291527443,0.24115803462794463,1.6369729176133645,-0.58050050778050821,0.60524753796732345,0.025047374130995462,1.8073034173799307,-0.12316155323995746,-0.51197128091828381,1.1132926502740732,0.84179054578370127,-1.2326133273656696,0.85226502935917459,0.99682610941523919,2.4327513268477694,-2.1229260009352968,0.98801723232260474,-0.20766977142178342,-0.53711616306610832,-0.31687167117691695,2.1215298362766037,-0.59202180816406502,-0.019498856259902563,-0.48223051664844779,1.2378083611352371,0.5692238856292301,0.86101083108831999,1.41347461950702,-0.23101472010964044,1.3483460560755673,-0.28546525892158542,-1.3831366357038553,-1.9271162610332011,-1.1014915551810678,1.5913686264337141,0.82420594305329065,-0.56065996460586809,-0.13428367141570977,-1.5627054344111779,-1.0930032905070268,-0.050684259327625499,-0.64108378079672079,-0.50327207524148254,0.92383803088980532,1.0144597605019561,0.26829090003259348,0.31214883525021564,-1.2278179537430254,-0.62774909364229559,-1.0534019116010958,-1.2447197210147247,-0.31397495961171312,-1.0108386980851045,0.45192376951235497,-1.2902185313779502,-2.135656234722461,0.78455835475122027,1.3245558221468701,0.068884278222195103,0.46677403229650483,-0.073354534861936049,-0.66950788677661455,-1.588435798179084,1.5786951232252893,-0.060696770812912026,-1.3810633251997442,-1.2439517856927895,-0.033083061115344765,-1.5976070668009745,1.1651077387269158,-0.52579474076326871,-1.5487602700785423,-1.1285744604645098,-0.56607399069726316,-3.1009874926396068,-1.4323905621583806,0.98054406568435459,-0.55002316545028962,0.6507846089881868,-0.24444129961387642,0.81512494585403239,0.58723566534587546,-1.8241583833137269,2.0268582760823901,0.021680947253238447,-0.77045876497221255,1.1749475722064799,1.0230456460791377,0.59715580249951461,0.2583980487343237,-0.78530737804590078,0.19258806420846372,0.77721917546193575,0.44233526400649648,-1.54413057678804,-0.49860315480390383,1.0474875196522795,-0.3057722418091926,0.65153064384572945,1.0057488099724703,1.3308350042162611,0.30368153494339351,0.5291526360744937,-0.045872490233867441,-0.14264051205197442,0.10874704918886219,0.083366409339869094,-1.6658154053531853,-0.36981939790320811,0.67543712940178091,-1.4778237133755638,1.0321424650329254,-0.016422993603055137,0.82527968874366742,0.73833423629666839,-0.61173309845393564,0.64670085032787739,-0.81396505770485272,1.2237380301490111,0.13372213677967618,2.1352832695735087,1.6940979917834331,-0.097826388236627815,-1.131123120733635,0.32401073941622094,-0.76933174265192872,0.51392356665480543,0.050284144238096247,-0.49930977593226883,-2.1801829804022623,-0.36702313099458245,1.2019517868195155,1.1823490888252588,1.3106006582972134,0.0015741264442046593,-1.7827937654285415,-0.32404847337912196,-0.30862021042834265,0.14324780005979079,0.54502291696873029,-0.43934616514733604,-0.72114986377212376,0.75799847735013104,-0.28064187234740223,-0.32760299429041184,-0.3487517447287089,-1.2522958280950003,0.1385866243285773,0.2799881026964402,-1.1248835765728378,-2.9271199525232801,0.19914461694070507,0.8037947517872458,1.1149151241290529,2.2509923245904693,-0.89427097030029279,0.69130217093933832,0.41895162525574459,-0.089031613069709414,0.53268716927580007,0.95727692659265584,-0.67120668878071599,0.78228809375247388,1.7029998463374936,-1.6265588423936443,-1.8460967186099722,0.092646781473114295,-0.8180446339021944,-0.15915743322636286,-1.1657109599154667,-0.66466977828464302,-0.87242029367006468,-0.93691006952279587,0.80296119678814859,1.2219042103375315,3.1253016350988507,0.70183133059349911,2.1231583603396489,-0.29112337577672093,-0.38397985830574005
0.20878959255057014,1.8186161603800604,1.3018021691855355,0.024980791003730778,0.39477396825773414,-1.8664882495379447,1.1166702009114662,0.930868542580921,0.90317347796266623,0.76111450101508182,0.98110445658924583,0.63636579127891058,1.8150526804890865,-1.3164935599909102,-0.29406056259234337,1.9102585751120496,0.37654121184406331,0.87134334231531929,-0.13537393341095991,-0.2062849674760063,0.20821559587467922,1.6271834796909317,0.83165722827392241,0.4364383497068976,1.236662850730283,-0.47106762691795351,0.97627070951051564,0.82944883700401473,0.63066757732124734,1.0463835805547854,-0.48283412993131586,1.6951043827130476,1.0916987694003286,-2.4442533062087128,-0.75154230401965805,-1.0386830472584236,0.52331422846327003,0.081165004023572726,0.13928147424652074,-0.31278442188424793,-0.34362460709656711,-2.1067062232289824,0.26630618689073571,0.42743296471049746,0.53501847559383064,1.9888455303809984,-0.06844512757592397,0.26495582628467113,-1.6182592340949951,-0.19686722807019114,-0.013679408295310325,-0.54482949500591604,-1.004763880905484,-0.069467873846250458,-1.3281749931978928,-0.29237226518918225,-0.007184767820339848,1.5171768625232676,0.5557507317153374,0.49513388111634116,2.0090137585118031,0.2373168606311826,-0.42681884768732981,0.057598678563290817,-1.4745354088015505,1.9224104429002544,1.1336429302940165,-0.71584788252038911,0.59860377908214579,-0.86612249290581711,-0.77554597059174346,-0.032408614704036824,-0.58224021441342477,-0.11123736647457846,-1.9797082649102178,1.3402919244531859,-0.31654383523278251,-0.018367968092726054,0.052497968455388309,1.0044945784987818,-1.8349703383094085,-0.13437702760725886,1.6772548207031419,-0.83281419299518666,0.18784029928100388,1.8444456791319768,-0.46453090748329617,1.02410325206301,1.6553297998662322,1.2008197380255035,1.3564984258459178,0.28852447312483814,0.018819922639653024,-0.21047102710487245,-0.41316616968665948,-0.23514289592823015,-0.13384199405047509,0.99545719617542905,1.2614102054439682,-0.66816176979723785,0.79331851356796723,2.3428617607015969,0.16362564756752637,-0.60004657840186859,0.02996931391356767,-0.94677760874813366,-0.53322370873284519,-0.51242926518817977,0.90510314369588862,0.81297979701522927,1.1859279229959567,1.242759612568288,-2.9812004741621099,0.78736076776473163,-2.1476124681408111,0.016166466523796479,0.65757951147863614,-1.1067020436340205,0.031048364697354731,-0.25349015874564818,1.7253534952712504,-1.5425170679336129,-1.5677665422435261,0.59730527659914767,-1.5961777935753936,-0.9705717709248981,0.14319922264118284,0.060329152528699193,-1.2369222369473813,-1.1203408183168497,-0.62635451470778247,0.17629656239295136,-0.26720404748713189,2.1339421222220993,-0.83846736977081637,0.14183914386713434,0.45177463953356323,-1.0639406560802753,0.97662299752810455,0.92398102940801741,0.48579088304385154,0.76012627281981382,-1.1443004622181865,-1.1783335303413704,0.42786025281914042,1.5971725411211031,-0.5385385216960028,-0.59951059365352055,0.48946455979668979,-0.20296882135991282,-1.3726517321122464,1.2443440381022659,-1.6903037458712538,0.021090634205452093,-0.24109986551328969,-0.69883353540375281,-1.2263276203968738,-0.48795473491673907,-0.22712859993762927,0.88268273470150016,-0.82982879045644165,1.3142732248587521,0.76755733149878647,-0.14828246065688291,0.0069929176355379759,0.055429256944303527,0.55769253873726321,1.0306727112791167,1.2220904153607004,0.077772916669310146,0.16949048051337731,0.72610544127520027,-0.38828082102155526,1.5159867245339267,2.0865572546553404,0.86268249970177391,-0.77441789580885279,1.0575277617894474,0.31246260590428915,-0.40818923209649405,0.33583450534274878,0.23932660089262342,-0.47264982841318737,-0.37180230112996732,0.87406567717689843,-0.24889240127982928,0.19501889659996033,0.18359705413523969,-0.81309063372003676,0.79776440967578821,-1.486311837671934,1.2980124557620085,-2.2276458121699463,-0.18124238461482722,-0.35772865573447704,0.55495911268461084,0.97377126572539585,1.0008659247200564,0.97645307392662772,-0.056683121993780901,-0.27717689679431951,0.15467883674869193,2.022877705861978,-0.57791916988754721,-1.1848726836512455,-1.0329664175960471,-0.58824246866868635,1.8749590810011485,-1.9310137003939778,-0.22159756777034006,3.0032085614847106,0.69209846362390604,0.75519024270686652,-0.39686094434884461,0.67993220137103438,1.311436493441513,-1.4590453151656066,-0.13889779941749086,-3.1183926450089365,-0.22537057355983181,-1.1512191980116024,-1.4405278179451682,-0.4640441204767381,0.20081171441848439,0.24284476231745811,0.41217052708024754,0.8409372800641195,-0.28226330973014774,2.5243445815935566,-0.31728455650406029,-0.061241030278894326,2.152359735943782,-1.1401642774077008,1.4943629376896161,0.75707381172268617,-0.43453828063454197,-0.89548792179675696,-0.17668308268368502,-0.42163439220397653,0.048823186184280096,1.25592003708794,0.20113316515577978,-0.99983847265940218,-1.0489690921879784,0.01658421823523739,1.2790708285868073,0.51082897461691135,-0.42287913730318277,0.62556181140425138,-1.0961696723003813,-0.4251087768199856,-1.4205444397817264,-0.83056288342601958,-1.0268417155111622,-0.21780916047606472,-0.46221897016267882,1.0143451521358697,-0.32591071627588097,-0.34096728576366392,0.38861436632391777,-0.53773155207640366,1.3154074726608003,-0.3007768478696769,-0.72571402805982121,0.52992307562397323,0.099099864398538531,-1.4494448891218643,-0.9617857742263296,-1.7173445469662965,0.0050815520803002149,-0.67715633517467,0.83954527908923549,1.1404825556470326,-1.197584056910719,0.2802526150044326,-1.121699192466564,-1.8833920399848203,0.98354304419359517,-0.21770227275732987,-0.18732024359191762,-0.23757358473970097,0.40919407780439099,-0.32862137300354743,0.62829888719896243,-1.506181559136466,-0.4951083450241659,-1.1730159436247936,1.1222259894406177,0.36970944958444646,-2.4409455685977721,0.23192733859099521,0.18983562414146393,-0.079632227442280851,0.7240574154221967,-1.5734592248598003,0.20939214694924974,0.92118341876004395,-2.0010273252325574,0.69507986496280949,0.28790545529818878,-0.40233217747071387,-0.76989038674948629,-0.70744817587540176,0.35225270396608321,-0.061246093467355801,1.0217489094178369,-0.95850526618108567,-0.34434115187425646,0.88877500832429845,-0.98675718570067306,-0.50128439720062201,-0.049827798106105881,1.7168826774019457,1.0489637103229148,1.1236675740534938,-0.90205439222572881,-0.026741195440700031,-2.584463917448597,0.88032348219932566,-1.1576359444143818,1.102428735903034,1.3530492134270649,0.48750521865371749,-1.3473797212357699,-0.14003827635615335,0.49263186635704104,0.15703425220739639,-0.40324931570077255,0.1286163133242276,-0.32428890575710034,-1.7968328153038045,0.62194076979931734,-1.0447122848080064,3.1616521900647974,0.94552928558279115,-0.23504112737653846,-0.39962449215260859,-0.019659359988737548,0.058072321312488059,-0.95399513142474901,-0.52703116330056876,-0.039380299809856641,-0.83127135278661779,0.46443200150530917,0.20163038303252667,1.0991384234098378,0.63927711541334264,-0.45893811353869429,-0.038659323641979361,1.1982744920507808,0.94023490327847459,0.86610639592033445,0.87865641442243936,-1.414060093309313,0.26702455555954674,0.038734568793558702,0.43774368372111339,2.2373326114885184,1.3181358413524262,-1.3936075701999926,0.34097484986396015,0.45292448510678263,1.3094233053047293,0.43521300394765944,1.847977548394639,-1.4564460597583464,-1.9701558716742416,-0.88195415356000595,-0.22650635305769198,0.20817333347622383,0.32900637609099614,0.40606042607428267,1.0365117084883961,-0.065495326143860166,-1.0433739218706988,1.238268646044276,-0.11283801444429527,1.3810266984269928,0.1202189073141496,-1.5591094399484151,1.5182448083674684,0.35190688024054195,-0.76932284087892355,-0.51838796218703231,-0.3261067970766619,-0.47280797130032121,0.7994304665576536,1.5693548054874613,0.39601232443270001,-0.25526574704952337,-0.41383193744776559,-0.065756887367571959,1.0999394626301995,-0.0017077015250186039,1.1454912504922241,-0.28852663657134664,-0.48958324371229195,-0.45957954548847335,-0.046814997407365763,-1.4856283144401436,-0.67481723059034349,-0.026049499772956921,0.77498971550431384,-0.9616156537571926,-0.02430157400862689,-2.0818711029891053,-0.079281557392402821,1.6442123804061108,1.7203442355988789,2.299282040512566,-0.38930348741068388,1.2096634865873388,0.90345578710903884,-2.822393603984279,-1.1488030425488449,-0.18742991922960348,0.1660466677973482,0.52446583606964459,0.61433525338543815,0.077494186488363731,-0.073238217214017715,-1.2264765998771208,-0.48589433510272423,-0.37485204885179602,1.0413021416303521,1.0645662532687261,-0.31985140172293575,0.65701419736962563,-0.15893255627244107,2.0598808000039162,-0.13068376670101559,0.45545174377879671,-0.23822086820000074,-1.591964498316468,-0.082582279047397164,0.48594807537168128,0.61183535935856703,1.9173239137061755,-1.3084903558294756,0.90469847580345608,-2.3459819254752747,-0.28545795510064503,-0.57368395556940754,-0.20407458857972119,-0.091756463817220149,-0.075094691980057554,1.2465689467398282,-1.3395136849692681,0.11286774953466211,1.9144759365428108,-1.3052337092188457,0.21676032004160425,2.3553577625322295,-0.88155162297173406,0.55403283488446575,0.78962275748251454,1.3544832125999551,0.9231244558700934,1.3566603035969587,-0.95910681293248767,-1.0768485702117339,1.6681407975548863,0.51170140961894872,-0.36267766130701573,0.88301931190485672,1.5182660587207768,1.7252685859844348,0.063669497708650574,0.60117900307281902,0.98431525195088343,0.24624193382891485,0.45219937737302179,-1.2735741435891756,0.15562527605578524,-1.7610973824970142,1.4595138847319877,0.35828534604253559,-0.63689607941530313,-0.9952350050058193,-0.49856405531836873,-1.4020782836712071,0.95962632218018284,-1.666794274811725,0.25121642614192186,0.075152777005416657,0.15900809249864403,-1.4558358472547868,1.0893793058767616,0.060768283121665899,-0.92133027579644933,1.6904222409950747,-0.21545979678081098,-1.4754454951717493,-1.8556571173722405,-0.4383954345276444,-0.30816200748571926,-0.50514009407006466,-0.62229814432562514,0.12937782005543508,0.43781940574653211
1.1656682175974853,-0.19304560835258611,0.54576984023358122,0.29277894354237843,0.62519568686972238,0.84852277481877658,1.177090761403726,-0.3553749429989887,-1.3934380573768501,0.55713444573630588,1.1235352433235293,1.1275245418546085,0.46797784835257888,0.044237087257376947,1.2468001890158895,-0.9996528438205925,1.0279656434893767,-0.40317529331800389,0.0016166240275243063,0.56304383205055464,1.2114208977119638,0.42433162453715439,-0.90685350532858144,0.70583387997820524,0.50766864343043527,-0.46737705162233667,1.4368478412696275,-1.114897639360438,1.9320281240397223,1.5787934176896028,2.0980105701944285,-0.2020558743635259,0.090070072120005909,-1.6089712425608012,2.0021877991243073,-0.1946105013368444,2.0933951338335111,0.16095472027746344,1.0214282354325002,-0.12407333975622309,1.5598238965727527,0.77850844814036835,-2.4735716916649269,2.2995568671909243,0.20639565021790607,1.6827303115633248,-1.0682427271851749,-1.4153104250884758,1.0867151822084451,-0.098121215186317071,0.81071586594983103,-1.7353225236028353,-0.5117331938409817,-0.53358460671657137,-0.019208212479571565,0.53216384811343731,-1.3622010585465583,1.1423795198363877,-0.91968686935490607,-0.67174897117479093,1.9052613498665183,-1.097000216948528,0.11202709581519363,0.34795229112076509,0.32662726753014198,1.0034699650698042,-0.61992201895905319,0.69411107743979894,0.42020733676119015,-0.27548533556911597,0.45698581805152733,0.19554344465477266,0.99189064028295904,-2.0919699312053961,0.1594401216872843,0.50806393488673862,-0.96396121340610186,-1.6916947535673066,0.93770490112025262,-1.2387020697522146,-0.099194442811960437,-0.80655070628940773,-1.7921841504421467,2.7432804138841584,0.97413716774504588,0.21069862312579715,0.16789505513717717,0.65909753917531622,-0.92491563283469491,-0.64858000753731759,0.47682017618792105,0.039869140553362534,-1.4936990607345608,-1.7097484240098824,0.63285755724465576,-1.1142184631423582,1.3484678912743591,-0.51290588076891441,0.25910062817512319,0.38503147442856323,-0.66315277457426158,0.56079320870307714,-1.047425886240124,-1.0052360101667217,-0.52636846094105627,-1.3643794974214816,0.30554348683401722,0.84580540402373916,0.87790731690787616,1.3215052011860215,0.39001177968260814,-0.18245980220745719,0.85497009441291283,-0.9169854734720565,-0.41120584995965964,0.73697892736439685,-0.14842737413474322,0.89887688230344109,-0.0052278736113114217,-0.55672462322798566,0.074665460634338029,1.7802234400182124,-1.1206339367747058,0.16628928960729236,3.1185781312644654,-1.0476341997019847,-0.25268099628794943,1.0855307818336171,0.01331715138602519,0.14979294994819201,0.67095098075086868,-0.97523646123967744,0.91144861691062584,-0.99779167572786809,2.2428612975989548,-0.29606950411792793,0.99152279505533358,-0.40369043419826772,-1.3568461736874147,0.077706709739133281,-0.060811993626001662,0.013544885221697065,0.94944659912073037,0.19487593966748601,0.093463744380123781,-0.10359742653209583,0.53102614402704462,0.70238216193610126,-0.919528308669468,-0.81535718208595509,-1.4987896943589496,-1.5756777320279718,0.076617609914593363,0.028277781039171213,-0.23286907805831467,1.0151146333665926,0.15025383469076692,-0.23403192350207103,1.5936070778138907,-1.0138614723336179,-1.2789905903637722,0.81026358238108609,0.70147134447335246,0.33813712612343161,0.34534167027726459,1.4599682700113232,0.12083938536984569,-1.8935695969458097,-1.6388772134441081,-0.31797281777621961,0.35193361058068018,-0.65007536034954017,0.3155339700038709,0.19524677231028084,-1.4401431245589849,1.8694108861894676,1.6177070204737141,-0.65004939710047194,-1.2141994693781071,-1.1553453931142705,-0.104810984222453,0.54027473341218391,-0.58052037165718362,-0.066509158873985896,-0.57761853803463259,0.97626781473918067,-0.24163529259661934,0.10595287076465175,1.5507507914717629,-1.3589298974813118,0.80013901453223268,-0.99344716834266511,-0.18494188202616643,-0.21037527048928098,0.124000841480187,1.0269406220266071,0.60797338144536417,1.003562899149258,-1.6432951673701646,0.47429597226056502,-0.94311475195260885,-0.14810644346012078,-1.3019733305107088,-0.12000716442548598,-1.6802980032101631,-0.28295731974197835,1.22577033294115,1.156773423850024,0.17232810812923152,-1.0793542427508631,0.15110255189748786,0.29298739143103281,1.33059191414441,-2.0984169714333629,-0.20563809170664288,0.97089811781908186,-0.017785955648623796,-1.1200692817735762,0.082917092800632183,0.51759636682093368,-0.19746416483898108,2.1130735768896449,-0.52783826412678958,-0.89671580385098471,-0.547577753329337,-0.60831460022879447,0.32119469929905786,-0.92244495101021406,-1.472282020551253,-2.4733529595759021,-0.040307903641539626,-1.7759326634204951,1.187745213387859,-0.35336103796336016,-0.65235592759846228,-1.0024948957352702,-2.384829352689517,1.5167537505481876,0.80655730165522532,1.5659640324722937,-1.600933694946131,-0.78756950970880701,-1.1311773616172178,-0.38308699020989956,-1.3126324457823508,1.4254491507047944,-0.45959445182342373,-0.19762812893437037,-1.1849481559931887,-1.8633714652623445,2.3674169812957309,0.40024694354025303,0.75023577609169478,-1.2237656331088305,0.088115420712042744,1.6516954061236853,-0.18025915390108438,-0.053537547693803193,-0.11560418880130005,-1.1754520760087119,-0.50476853955290824,0.23038664333560976,-0.55497362756778013,0.67703363766643798,-0.77828583709109933,-0.23935176242376763,0.3043399143987095,1.2168043468922587,-0.54541745965263388,-0.30846473992701978,-0.06083272053665853,1.2484815742330233,-0.84409679268160531,-0.096348558984233973,1.4801412371881713,0.053987907324424746,-1.1775246511616497,-1.8814344791693238,-0.15057853594527842,0.33784999871066013,0.8115716792279325,-0.65478662051161995,-1.03397909448144,0.12631484251432956,0.88130940755338705,0.03972435868050176,-0.23852056064174587,1.2989030883880186,0.55361038356596748,0.57113595513591087,-2.7809276276064208,0.83381576821781889,-1.3911506413174273,-0.69620569126096643,-1.5608435100994795,-0.53633729342281034,1.8092885985904561,-0.81562593721661958,0.86462103270749346,1.0225816506072287,1.1412682970340291,0.56729048715185826,-0.54248912361361812,-0.74654025517155553,-0.5920771143310346,0.022277724509744874,0.23780645046586962,0.22545137544426175,0.4700407541108742,0.069211101835193217,0.9910212937184063,0.73236543727013526,0.13873753833495578,-1.225746038536188,1.3067886830360529,1.4735307696067679,0.11612019475010782,-0.65715501303474677,0.24786728707328451,0.026446821032405355,0.71641740147114497,-0.57000247685252792,0.25958310512905286,1.4166067134425824,-0.095950872097955775,-1.0270496410208647,2.3519035438242426,1.3542592230222243,-0.25561518606940076,0.761216624943446,-0.80017789207659795,1.1782759290424678,-0.40264792283903217,-0.51320337441056729,-0.67997301548194156,-1.0352990290645505,0.70810316152938635,-1.2701817078894773,-0.68350132237377181,-1.6353107602267842,1.3620608449248559,3.2266231655420192,0.36616487114452584,-0.50797071976265273,-0.34163006249004341,-0.87408340756357494,-0.90527174373860353,0.21475538757371285,-0.88738345638317395,0.411141262169337,1.0573689534241675,-0.29033550660627561,-0.88668927879241832,1.1450602031442358,-0.33110852396032137,-1.1962029951295641,-0.45569804488149518,0.77274424978446377,-1.8375200267661029,1.1150868618880985,0.51709704867878237,-1.2116476713283668,0.73592109057154986,-0.49975649037700864,-0.56523328543268925,-0.11812540784075942,0.86345861187391637,1.4767542899364132,-0.37802142285467549,-0.23332442832159539,-0.60316981644462975,0.64618003266152191,1.0613838208634128,-1.3814195183878635,1.6605966477674781,0.052370297047657943,-0.6736164256128202,-0.081824148281290518,-0.1279101183199054,-0.24449787310536153,0.73977023403262132,-1.8454084999183447,-1.1855505197745844,2.9416585692309112,-1.7294810943254455,-0.71514153131032665,-0.67397048934435622,1.2780860470510313,-0.39466145897310906,-0.99327559817382516,-0.27196676888184729,-0.085789928499527129,0.54569632624832143,0.90284173869572437,0.76700949914506356,-0.28932859537486283,-1.4578664144367501,0.45054893122543244,1.4222472596123328,-0.10717632716658779,-0.46766318117608874,-0.14675535072654794,2.1754479563482687,0.92878326254555277,-1.1386163148384296,-0.99161848354401338,-0.57169653093154515,-0.68513728404596164,0.35620389787916545,-0.25007658487741796,-1.0501805410042204,-0.35500951750522652,-0.70919093795218113,0.82350107994916677,0.84817796416928248,0.10957421020911504,-0.61606370344555272,0.4121895556349861,-0.48980947631774679,1.1111217069568202,0.45872837977322239,-0.78042685499591413,-1.011611460527978,-0.51269815372119787,-1.5874590851544568,-0.40285479628695264,-1.4193320834441692,-0.88965931338661486,1.0408639815091274,0.42200289240316152,0.52080511966498744,-0.90440139407372866,1.0530170861918988,-0.7680696784845098,-0.60429449855605755,-2.4116518033121519,-1.3502343443398011,-0.39034380266837226,0.29627511252952277,1.194137110461936,-1.60810763372726,-1.0169142783597973,-0.62615649963205355,1.102825481288684,0.6246612335591285,-1.5648147584339258,1.1536233571097751,2.0747332859911838,0.71884215171468469,-2.1106588872091585,-0.21385029149299001,-0.16936474263573817,-2.6194690900335558,-0.71724398041861759,-1.2615737442853239,1.8158948391702872,0.27120948441568582,0.64491254521207309,0.2753007133198202,0.74304837347130226,0.014347913790264679,0.70055462257779,0.57054532740220576,0.035506153669788564,-0.8940045645570065,-0.95368350404216717,0.51546769249739099,1.8477324506819381,1.6588209051044001,2.6417626471922668,-1.1136582474643919,0.063119606099352701,-0.057076114051167776,-0.10831980301754573,0.94045439310658252,-0.91628159141896681,-0.89735235019282933,0.28281134139126524,-0.12567710287209158,-1.5265002800380376,-0.016222683123730017,1.3225647244914931,1.5339487241199221,-1.2326662021933312,0.26305581129671896,1.2785201184733133,-0.57445708326139466,1.5967160682358261,0.01665684476078522,0.65931151632866003,-0.38238395258071872,0.49810883072445034,0.91662117208896665,0.80216746813724471,-1.3545717905013255,0.40677573639881159,-0.37483239701645799,-1.1039269279638231,0.9420865810322685,0.07871915355867154
-0.91268993036648738,-1.0517552225050804,-0.99478914392631457,1.767531680879449,-0.028610263492399295,0.1008567343953037,-0.38847993088524518,-0.62270185475967954,1.5028239465624336,-0.54833257738030761,-1.8375105791930664,-0.70376040005133789,2.3234742341372727,0.20635748060621645,0.28233551718478722,-1.3000898993088026,-1.4098664671674643,0.84833574970178616,-1.1572371906194512,2.2832170663739668,0.12485059029492837,-1.9374955252360957,-0.49190181892983204,-1.1648641142409331,-0.72706948827794637,-0.75268563528936605,0.86427443076729682,0.35148431280650111,0.15921736172833911,0.14843332928646844,-0.44151543493536533,-1.4673942416587611,0.51278893081282761,-1.3155828978026887,0.10018582183389536,-0.14793782394330823,-1.4883199168640966,0.62742265040493017,-1.3691093444708373,-0.70501625650717303,-1.3083470217595674,-1.9654532649677692,-1.139293065439134,-0.53070869479337957,-0.69822669266637205,0.80968792922226596,0.35364782033827885,-1.1168390863591073,-1.4444936977200165,-0.10255833913206076,0.83331008044712862,-0.12359043142822158,-1.0222977188374984,-1.3387955448345996,-0.72493090326785325,-0.61818243120019756,-1.9364655550535979,-0.27904809538206321,0.16148609694811852,0.096919549683793141,0.88426271015019831,-1.7274740690702235,-0.28706764757960451,1.5644628120310884,0.77804631112335809,-1.8628393860762296,0.4268836755276148,0.59415282069016906,0.39175796922025985,1.4800437831755422,0.31979092167629292,0.297501884782292,0.053312967698548354,-1.2191875707181858,1.3767379633080801,-1.35400820755965,-1.0255111390571163,0.62438738867378518,0.25636207331326871,-0.30833620243263254,-0.76934450823431944,0.2837124207336838,1.3203333352443736,0.49497976850538955,1.3034647265319488,0.22389396745492685,-0.12816937225253844,-0.051297228440805205,-0.51821295954652002,0.6443790953371239,-0.11721947054754205,0.054053449718966348,0.29637068608746364,0.59677291512346664,-0.29906513905304333,-0.92553183790289251,-0.31117900068327758,0.29495912679505309,-1.5069924442414635,-0.28505007760375273,0.31376034516425833,-0.22684897744271801,3.0222544092168011,-1.5134700069494651,0.96832239678489718,0.32419290844535342,0.82756260760294043,1.940457866900352,-0.13375801609979809,-0.23004004690092192,-1.4797726418034669,0.19994747420556244,-0.051909066694447129,-0.13385818029940286,-0.64372739167571036,1.234317909796478,-0.048146412570604188,0.10540071398829849,-0.57183788995657503,-0.9759335065057444,1.0264798040286756,0.039459586061102836,-0.48507639261261887,-1.1296500936527889,-2.2897098011813748,-1.6796302076908192,0.89871427506535551,1.1972244695644834,-0.4645444931847803,-1.384537498472203,-0.4456020217165067,-0.8900983424196417,-0.6075027572680437,1.1007408154402993,0.41962616624756072,0.45525395310858957,-0.138496105264071,-0.5578040062577847,-0.011127659707300177,0.9143371484527093,0.10215619429542534,0.02553463121009714,-0.51189223676359397,-0.67053357296781968,-0.54229739713081326,-0.14178737193184685,-2.6535935568993234,0.41717664644468105,-0.48918598576439337,-1.0396985047544771,-1.3999533125121089,-0.53169351669903098,-1.4185201986309226,0.85563418078251086,-1.0393395167273565,0.6823707961065788,-0.24324328937431275,-0.77928141980440957,-0.6326546778769917,0.035748631326206939,-1.0395561167722205,0.95094810469328761,0.6082877649724534,-0.37060965205630342,1.2370586475649648,-0.41936998449484159,1.1469371037460523,1.3741777785595939,0.59921020937116554,-1.6886006886708205,1.0456538649285323,0.11624584579762515,0.89800117687567182,-1.16533558324984,-1.522659907612903,-1.8475623236173406,-0.62423609163997706,2.2406301346990301,-1.5793817361760649,0.75329939550445157,-0.5290515675926023,3.4549862657325514,-0.2516621979381235,0.13900748004525884,-1.9285478406808569,0.94554899847774831,0.85820550313797705,-0.65658588923225214,-1.2636249666568384,1.7219047806656478,1.8368239413718954,0.34697179328689554,-0.21174733746291052,-1.2335732089086702,0.82752595639853022,-1.0820611815611971,-0.023054724825461465,1.2318441965142672,-1.7664606838515573,-0.72549962984462635,-0.18095055869333043,-0.042096766229599479,1.5144740664642602,0.33712680437079529,0.76774376839944336,1.8793801010132245,-0.42917746193720679,1.577001165817115,0.70518971037374301,2.0757301974479678,-1.4085791578516569,0.23821035995362158,1.0680685045485112,-0.70186929639648132,0.048878178644827457,-1.0739518509261836,-0.82744582597971073,2.5163700041569865,-1.3995657302525664,-1.5958903562234106,-0.15814687749300002,-0.38783818463439529,0.95699997317711227,0.67631173509142017,-0.69271617217543779,1.599091060630961,0.053831635796766593,-0.16634271141838736,0.69119789271597698,0.36568430066077895,1.7656203358805249,0.12679702844946913,-1.1593528572365963,0.93758352514905452,-0.95318992983903861,0.25216860581256617,0.50925670379896459,0.086836585547290748,0.79641686127909117,0.025303496918495448,0.89865396457095403,0.52394380101615257,0.38221993536832899,0.38333511422387029,-0.66450256726013579,-0.28816156034743906,-0.23201655036459415,-0.39546611890339683,-0.84416631383542218,-1.13618760988793,0.37026407980230824,0.75700261070959096,-0.32631646118338808,-1.2078335216518108,-1.1038688093847664,-2.021816171692266,-0.61220600292333882,0.67151525837932868,-1.4647119373550388,0.18558391289190132,0.24582925558231242,1.4469558343927442,0.30577533963027748,-0.3386830599683805,-0.34611574628304392,-1.3878340339913788,-0.14830355421055744,-0.19158693871801069,-0.27226661945977221,-0.19859892354401373,-1.4856668914939855,0.44816686625221919,-1.6873719273581123,0.026408334101487175,1.222305339639064,-0.46088435499746883,0.13349235892546668,-1.5622954327808927,0.25263574458202553,0.29935664836275266,0.32741821120144388,0.47920275812703905,-0.94957319046049693,-0.43576662365370727,0.20974769586508363,-0.59130144980296728,1.1721920929912644,-1.4113252342020772,-1.0901058306713616,0.20084712734075369,0.79885500386482833,-0.81242618034682712,0.43687358063061338,-2.2257402513019642,-1.1669749746726177,-1.2915119593531827,-2.0525891115013488,-1.5909375681930817,0.82277278023120148,0.089565274886881763,0.1970493158329146,-1.1479412781978786,-0.99775662756251582,0.24173220598029332,-2.7617172955884626,-0.75566500907639289,0.9187889757980765,-0.35573077625825889,0.05311942188590494,-0.52133139083071889,0.19769387620953247,-1.7770432451725098,-0.21951939649693375,0.28943736839528489,-0.83121927312642097,-1.0750963861257961,-1.0190382995761431,-1.310610289042019,0.7633398848431121,-0.47738478545160185,1.8710596888477105,-0.70382732852651209,-1.4530705963471207,-0.88015369790187215,0.25524034328016282,0.38826984565833667,-1.5221786132880826,2.2651083834577883,-0.75496076699184966,1.3846089877023178,1.4677671383238167,-0.62016135515436299,-1.1577570445748762,-0.71854037695241513,0.50278965469428427,-0.65916967741981847,-0.017015632159049564,1.5243922751323262,0.63361156176349076,1.2333008647476957,0.64541548131873261,0.69138927773804271,1.3422985319322582,1.3196704897829059,-0.11891938979951784,0.36300702138018937,-1.6929781633826406,-0.33800942892347818,1.1062755048709831,-1.3763696560964185,-1.725018960444419,-1.6755983903147127,-1.6574322250498763,-0.065545312984691753,-1.1669953407436515,-0.18819487220251183,1.2107067204908071,-0.28670333484553978,-0.55291260605722248,1.0910948189236183,0.31103732473070417,-0.12353498068559039,-0.57752030889940464,-0.21123403493819765,0.1914146144422573,-0.057822742758923892,0.44820587863838895,-0.36705595156167614,0.56464765765063407,0.85123060090065128,-0.61304488469898211,1.5984509591827492,0.38690333233552426,0.54490891185799895,1.7469552655894607,0.39581310077101345,-0.40213261650866616,-0.92336329329963718,-1.759944439463377,-0.15593636739715655,-0.95849334131375352,0.40258466104247753,-0.4731111068612795,-0.2462083738017854,0.72767118071482406,-0.9709237215231965,0.34085731561170701,-1.2495769019017697,-0.68016588034405168,0.72528099602817719,-0.89395569349465998,0.73168813362253082,-1.2471043770200407,3.0036355967131283,0.32462085746488878,-1.0587415409043657,0.48963514504518346,0.35417098075431924,1.4277411261993174,-1.7538333013152645,0.34877298691568709,-0.93848664019905648,1.1926306136969129,-0.049593996806261732,-1.9082445890512176,-0.67575534480026866,1.7233926851935339,0.98283854576119778,-1.4023732279920833,1.004641920565275,-1.1202836197873614,2.3785831633040497,-0.33701792672022374,-0.97881465698524117,0.64360686264919098,-1.0989858824191454,1.3317921478142141,-0.43342007524445397,0.19794849973475767,-0.97077000841441941,-0.34476003510957287,0.84426441007597575,0.5772747399011654,1.515003404024182,-0.83358491798264078,0.10574266553224694,-0.53258504010234331,0.70159974591870178,-0.79731450103955737,0.50716321874561088,-0.29303706005067814,2.1962838332287418,-0.2242296806046474,-0.10536612151670542,-0.51802135673288052,0.94448134031642728,-0.55830024407646872,0.10209300225050463,0.897464723704677,1.7575189150784953,1.3640960741334691,-0.49362621231038206,-1.845292685000756,-1.173979086969418,1.2859638208016733,0.094185729107731125,0.73568139049850911,-0.75806079086140743,0.34503763871372944,-1.3224031021550817,-1.3125890672162972,-0.58470229496329018,-1.016650359972143,1.267725997826189,-0.014471809349750288,-0.78974703401986568,0.50578442789638622,0.039499483662718611,0.079434801087336401,0.33492000713992753,0.70236199156241796,0.61454027541166312,0.11662750561983751,1.6558639338546481,-0.49513734685751259,0.28744944091864044,-2.1302073111272359,0.3517682576582371,0.49718319351072388,-1.8380542812174774,-0.82419966732213712,0.34691597130156127,1.4982895010820747,-0.69628294357474974,0.76420329742642557,1.113763651987643,-0.19057766866135559,0.012846576914857421,-0.92783723435437515,1.3695861736530883,-0.24360382693846408,1.5563155834390607,0.40831068253662106,0.11865831388791816,0.34240613850445245,0.72128640504207353,-0.90505778102837475,-0.095352084558529129,0.31645264617818952,0.13220282180908519,-0.41469854625043762,1.2100943533700317,1.5360287306446279,-0.21708029289758157,-0.69655855003340161,-0.011515487285613083,1.1657367603550328,-0.020013375867213766,-0.7199756841705649,1.0821886395451583
0.26074586782458553,0.77511501413492023,-0.98308548564918929,0.5253002603011927,-0.26473129510313081,0.73962481966028781,0.80388282542832479,0.05201281017878872,-1.4749832203244537,1.4736345749858333,-0.19981450594846772,-1.0902930132881872,0.68364626334257805,0.052528562853120811,0.70253638139560814,-0.10694742066999936,0.29638125456254383,1.0680923610961459,-0.90823969027916196,-0.76924457403537105,-1.0210238912383183,0.66018021952516526,-0.62321390791412601,-2.2445204197867765,1.0281051288777454,-0.46046080870054279,1.6752097627806313,0.46348767434597493,1.2210063185730038,0.8050939836011124,-1.19370531864441,0.81597923518535742,-1.3142705196110833,-0.0033489935433145572,0.22345262823532044,0.32660400326719891,-0.30910744804564716,0.86574217124696362,-0.10009889862244749,0.7582434853981973,-0.64065970825879459,0.18519838330401897,-0.39180527145865651,-0.37549749243515268,-0.13953284554874446,0.58303296118143688,0.48349277652266159,1.7873534946881735,-1.3062435081657122,0.73454836385601141,-0.72690935991086425,0.12246589477321145,-1.439089742485762,0.56551068261257964,0.53953363722464565,-0.77595764702354919,-0.75725560033669581,0.5792951611441115,-0.50298218832207597,-1.0102967598425987,1.3768186878433681,0.9262569963031777,1.2589072431017496,0.117360621453965,0.030675224704721834,1.6320795124804297,0.68834343897105221,-0.059756198458807065,1.1219960911402009,-0.93467683330961504,0.15787931600669358,0.35820546774682838,0.93959667469687891,0.34229259153177627,-0.1826691403394306,0.16647224710126832,0.69575223240912665,-1.130607056792295,-0.20603612733948543,1.129736602144374,0.58847146713681142,-0.70500586506794782,-2.2582115658501567,-0.58205695662387957,1.313460344493371,0.0038314857299102745,-0.079367531870772251,1.3045525874980557,-1.0426267616597482,0.35003225237032826,-1.4238346989795028,-0.9472051211424295,-0.28323620140275879,-0.94231950688910693,-0.79683390351319472,-1.2658609431054457,0.36472766423081088,0.091808041887230477,-0.089565723827839339,1.1630964179931291,0.50610172697771716,1.0734911530692952,-0.56851767886163962,-0.84661579185490721,0.13242171916275899,0.34981377035857664,1.9769373895040216,0.76719019864076232,-0.14987376024405749,0.41191844229414459,-0.67296722231875916,1.0598490938961709,1.7692627832485743,-1.7340342507307538,2.0268336421053741,-1.3664386674941706,-0.84232731866434885,2.5231068721158159,-0.81639377008862679,0.64495791536145697,0.24672204972187761,0.86751810061755719,-0.78864553778347612,-0.072430358835110883,-0.16166657349308766,2.1089694010592512,1.731884197229854,0.84412012266295211,0.19660082050982269,1.0203947534858975,-0.74731784511746246,-0.17233119176007552,0.3787409061879693,-0.41441991863487537,-0.30618926482500086,-0.20502159003527828,-1.1884304358484581,-0.45373935713902652,0.58238707215712604,1.0943850167820197,-0.99184574514012969,-1.5270354022965711,-1.4648189348061722,0.92735952888511153,0.97677721891336355,-0.31913246545990009,-1.1257707865125022,-1.923702732918807,0.4047056645341624,0.36955543834157417,0.16553597907793785,-2.3372916403038584,-1.5160930069092238,-0.40005190127475099,0.32162619541932386,0.31847799359407414,-0.085194959030868531,-1.2945788921182746,-0.12612271001978775,-1.3763001981676339,1.2699910341786351,-0.29688057350161479,-1.8329969706639861,-0.29492499879665562,1.2582407145088204,0.0065735384582517667,-0.63632334262259005,-0.93628090193237601,0.58044004685551898,-0.30251517827282248,0.48240541829414491,-0.0023235243030940529,-1.2406101750387939,1.2384739726392475,-0.51618474537705605,-0.27427076697612551,1.2037486014255663,0.18378257451753033,-1.459023384443739,0.42991821593338808,-0.4900178095357246,0.15218142751856381,0.5481318844455777,1.2284906248054612,-1.5621444685623576,-1.4966117158273213,0.40322510750376267,0.77799856888390928,0.22991763067675206,-0.052957558009238459,1.7034517450988291,-0.03063629691784055,1.2341470301793205,-0.85956322113421446,-1.5331415872841296,-0.41363621203744666,-0.29209909191755123,-0.67243261425426759,1.4199029915588,-0.35453292573316397,0.81397103772866441,-0.67227208235467706,-1.762718027091946,-1.9937206815645017,-0.74657016886599692,0.9422962064577336,-0.82504291159085386,0.80248114489239952,1.9784147187272469,1.0358584481608943,-0.52076443424295338,-1.7292211294134487,-0.33691647551591924,-0.48594568946392108,0.49048943949059959,-0.53065679796517784,-0.99001840827844834,0.93301516431174569,0.2556156451662559,-0.26654529767193941,0.07508952249615633,1.9479307381591346,-0.66305636460124151,0.16414682135010236,-1.5390544717615307,0.5719060706425293,-1.2567565602639021,1.4412573738433732,-1.8302555172801001,-0.62856452740383606,-0.84464696009044982,-1.7776466727746976,1.9057988496275811,0.75546258688844892,-0.74547790131806901,0.42986977178758651,-1.26778643405951,0.9883335265506995,1.9826908761253996,0.53298143188536951,2.7017973326564624,0.069763046516927663,-0.45419497967078382,0.20435747431737866,-1.3879728713739969,-0.10060549010690299,0.79637980519383622,0.51605980773440108,-0.98217311768122173,1.438833883453486,0.99313405825688428,0.24527384298949614,0.44557732018031265,0.26569296939646819,-0.090864220859981734,2.2787382509524887,0.79246173268320319,0.23990595324019448,1.8796614533386471,-1.8081455860863245,-1.1393121697319513,0.18107508121317595,0.97399324243304397,-0.080713352218234488,2.0517719741653724,-0.24218353888362518,-0.075989073519347139,-1.0145597525377528,-0.64750659671122168,-0.30532378459875481,0.68799783406160142,-1.0754433197753011,0.17783506933885848,-0.064469040283235607,-0.44490662041865175,-1.6035191028342879,-0.3618166276339862,-0.66569192964644486,1.4641467163439514,-1.0106870660358664,-0.020893332460246921,-0.0070243551575663527,0.23184325320169252,0.077888598832846448,-2.8303258806804124,-0.82319632516803942,-0.68450850712410394,-0.54474363007015913,0.1061606123019127,0.33392060998206624,0.33717995574050458,-0.24962689486199782,-0.48394235332501973,0.94534536371048794,-3.2287475057568633,-1.2101343894854024,1.7404965773745671,1.3468100540917067,-0.15702183898491778,0.38380440218146789,0.42770749850147738,-0.087239090399323996,-0.11214345736538001,0.93769341993759447,-0.3707381250932073,-1.1548472607953111,0.50075666070605018,-0.37250345962042425,-0.486412450598605,-1.2532276369722253,-0.30137989563205153,-1.1335119098737301,-1.2322074769770983,-0.12843485448407665,-0.34982564804523048,0.015627485653943764,-0.59079536286113776,-0.17997200589889592,-0.14839532627541269,0.033530780908930358,-0.69325200124574027,1.0548239274395406,-1.1840001294970399,1.3160394576679475,-0.40669627085417825,1.8558883281054184,-1.4324704996096749,1.5809063793658171,-0.34530348330109006,1.2666344791951083,1.850422315663619,0.65745842807633081,1.1560138149242212,-0.1409364215799131,1.2660615710831811,-1.5090137626987163,0.41461224669450025,-0.72581271166707095,0.13557783095189102,1.130384071970465,-0.42074937755490927,-0.87625247146195706,-0.2535990241226781,-0.43243408244860226,0.057655316441306323,1.910899439716774,0.94522762657055526,-0.53448910796316129,-1.0415168913430728,0.11021505062713202,0.12214992598754472,-0.76251495428452232,-0.22615623207944632,1.1441571319982984,-0.72197651077335612,-0.71483323075701977,0.31992976438475967,-0.307560131052802,-0.33432310682669014,-0.42559593592902628,0.54429922337459957,-0.048695869999159286,-1.3893799250087135,1.8285508250782865,0.41816265534846814,1.7582933743719842,-1.3001301667263605,0.7260919387054825,-0.60839208165268377,0.92910986910795457,-1.3544217343778577,-2.0224879644620142,-1.6273194938337807,0.70948332561218153,-2.0947339461479153,0.36983831747302015,-1.1374503395985274,0.39652095457091718,-1.5099632849124571,1.026582316481969,-1.0109109429500325,1.9561333871198601,-0.80376462276573246,1.6441477518377783,-1.3076520505611606,-0.85739797974881748,0.17428326846342035,-0.53528477883476988,0.75549099520454543,-0.22284388042037592,2.1924184245433396,0.74231728412645182,-0.66021030761419286,0.52354369479593343,0.58501281821413709,0.54809594934507311,-0.93244121391726931,-1.3551023256138945,0.35285426276111392,-0.18122633037640057,-0.36729914632622029,0.27682260452773522,-0.60101288032105038,-0.46729667171770206,1.9047286752998602,0.98508803181817928,1.0557435418101382,0.88592216230413945,-0.99715095367688789,0.62784713071900877,0.27955776973662988,-0.88767267707121322,0.0077646090640958619,0.05592087052082003,0.077924608402493392,0.44061370810264716,1.2489141380587288,0.7188940516918183,-0.55376952287020043,-0.60465805892084923,1.9974535565052109,-0.94526395114018313,0.04014971768385877,-1.4881827902099156,-1.0071937073070412,-1.4193567865118029,-1.500455669237909,2.0915152427772319,1.0669094388811886,0.45259029798767392,-0.96898279492458972,-0.74669286090815079,2.7273159699893159,-1.3521178869088561,-1.3530177754577271,-0.057409697827987334,-0.91081764889713013,-0.85367206743520674,1.0581051198584936,1.3192880671409459,-0.80820252596319431,0.30444894279007506,-0.69392999313968406,-1.9243346635752878,-1.1785949161559808,-0.10953519336248975,0.37312637063766729,0.055758945625364327,0.61414115418271487,-0.70031092493505698,-0.47057522104793398,1.943320044908263,1.482386586291413,0.04949887121243076,1.4201575718521136,-0.24455366390718125,-1.3922960797524104,-1.9217187970816054,0.39922834482690311,-0.55437795961389069,-2.9366616037091036,-2.5615446735495366,0.94105039202258178,1.6442361551053277,-1.2961378997446189,0.22464601596101211,0.18471108859731003,-0.55802283813436482,-0.4673275571739593,-2.4149808477383421,1.0364623323872051,-1.4095394634997962,-2.4460018260513929,-0.033465426286924158,-1.713100400671181,0.31307245208357459,-1.1986350340015266,-0.36637087703566662,-0.11407918147287283,-0.29335511212707144,-0.88389495898239623,-0.070754604227438733,0.6796891126351442,-0.0093269763358221919,1.3880395201762157,0.16140841035436765,-0.86509117664787061,0.1013209496550805,-1.3319900839464445,-1.0755380525646232,-1.2506960458217693,1.2973535819528232,-0.23874409083172221,-0.28160106424490755,0.18790284750526301,1.4204800555296488,0.39484909196293172,-1.0971220752828068,-1.2483924605513381,0.79904647862071609
1.3602612127670446,1.0190292331201247,0.717457442605138,-0.87589083191495287,-0.47100143401758354,1.2249516531588225,-0.75988025340341392,-0.1390941756176596,0.70114662778519687,-0.099969004932679184,-0.61090534383385064,0.14530790501445498,-0.57292305265743793,0.7648154605481795,-1.3541044147752046,-0.76221055867362786,0.69859265556302619,0.091335799804750331,-0.15348664031274956,0.35600671575218357,0.20459235973257761,0.0062768789948102824,1.3074851097805531,1.0171800808308387,0.51706217206105842,-0.89481809026581005,0.70414351152637911,1.3351550435362425,-0.44327409495373582,0.090622704386377553,-0.55323422286181689,0.21419551704781814,0.16017071862215093,-1.4914621832543298,-1.1288917453343772,-1.0058292125585562,-0.72386939284865248,-0.36246025569710089,-1.4938229749272933,-0.026776169014515464,0.5147564446690871,-0.80504464611367077,-1.213186468456839,-1.4747568973320611,-0.34669753969509198,1.1612272974104019,-0.45722690492129336,-0.17852534000572912,0.088291805613800317,0.42723791573974695,-1.2000983157629859,-1.2729502762332525,0.3341704746116067,-0.33474223682063586,0.65297313806421942,-1.2593937001399456,-1.4446087117985411,-0.58251459621297075,1.4947274741438301,-1.8032071275249908,-1.070957973529008,0.60875772598025513,-0.79276907168491206,0.74289210157261965,-0.77483460566747087,-0.81608969736689552,-0.56837517311555286,-0.26150768378612288,0.66667226179730321,2.9613303226624179,0.78092133458022173,-1.1175989768929457,-0.83667599558399741,0.25777111410819931,0.24867737053802877,-0.55347797077318961,0.74278052319139443,-0.1966211163851293,-0.96560834192024514,-1.0603256162620529,-2.9732407321952787,0.75106115933838991,0.46848071263074675,0.88657031845066114,-1.0459936931825831,1.4851182372612186,0.62080093496665589,0.11543447209047061,-0.31943121510005185,0.75656729873049844,0.68718001476989077,-0.74166107917644031,-0.2449768484259621,-1.1056861537676428,0.034582301265059366,-1.5596409397854933,-0.71839317814223158,0.49734044623314083,-0.4999832149737915,0.87609740430108174,0.74404453681965654,-1.4799624789120513,-2.0423625586334082,-0.82587029339628326,0.98373552385043839,1.1895729440305667,-0.20403648891306927,1.0409049986109737,-0.45581869494972377,-0.019000810734236335,-0.92706668286764704,-0.20393538241071421,-0.74903964069134987,-0.45169701145201197,0.76435794651797229,-0.024717603579359596,-0.15032440476418699,0.16734316468890587,-0.49910570825941958,-0.28199200060482571,-0.34822470958929269,-0.54544598900107055,-0.88640683264605102,0.44898350478922117,0.45074490605859524,0.24853108527143311,0.81439874769978027,0.49939737317877225,-0.22247764232399247,0.27404386379596662,-0.11162841711046398,-0.12828351302659452,1.8909302951099238,-0.48432748446368112,-0.8640560135339731,0.75057381420042979,1.0567239945756772,-0.13832350921465489,0.60342919017877839,1.0304740466643578,1.6357593082178374,0.88814495494190415,2.0605148744885686,0.4808948366878264,-0.49476343228347008,-0.26540866572312377,0.7222305142825205,-0.56636986182244964,-0.32179051047308088,0.20873274557730132,0.88967271558282635,-0.21170236560379974,-1.015690891566839,-1.2269691888666656,1.1221620874460914,-1.1733073769001803,-0.55306661483373276,-2.3509527707911086,0.78712210261446969,0.25465613009104365,0.28232328996466971,0.91710342367819475,1.0051210206791468,-1.0342981606847155,-0.62563022040858585,1.3220774214945432,1.7269281953750326,0.90215449386683633,-0.36280228195681818,-1.4240739305335433,-0.69866474490158514,0.91378495614216204,-2.3032111127606925,0.67020275481482938,-0.81196567948313536,-1.200572164414633,0.81653676017658083,-0.87335356537032804,0.46912815347161874,-0.20782501436860124,2.3085549159390584,-0.28492504243797978,-0.72238774617133383,0.68087137611094084,0.12219390434004371,-0.9605157017984286,-1.1483305067404583,0.84891973890586447,0.0059859099678766254,-0.20912807173094131,-1.9967781340261233,0.059049076558847273,-0.43702512813036576,0.2897934653095095,0.19207726459950392,-0.24621425032216684,-0.95933368892990867,1.1584441897704585,-0.99320226939816858,-0.47454331662691929,-1.4998086442496879,-0.14206707535536656,-0.028912227568148825,0.55881955486202317,0.95227691896978395,-0.61960755890633212,-1.467706973056504,0.80164825426456832,0.14721395939868837,-0.37082146049213427,-1.0885162598604436,0.10038403757407771,-0.5986110665527834,0.19709141410803352,1.3386481487791491,-0.99663557843817585,1.6248812249154376,-1.0487871245035847,0.042505346019628874,-1.1751514675918411,-1.3183757979093818,1.5633606806870179,-1.554193097574657,1.4255545191387977,2.0594356157708278,1.6269234997741215,0.25926249687378222,1.3558944273191205,0.25534754539083815,0.10297138885071667,-1.0209235829786929,-0.37528305977621657,0.67365595873917683,1.9692998258561358,0.35296047598392821,-0.87507336415480941,-0.1337798806083596,-1.211095844001729,1.5269015276610121,0.91644174002252032,1.7044724872944248,0.87080223378201616,0.68508075862918727,-1.1896893763503142,0.27318789090680912,-1.9801555979837313,0.1509035794585552,1.4462337102037479,0.14347741051685672,0.69275562613258956,-1.5070985459710344,1.0237521499601629,-0.75155094170921166,0.82949521811089377,1.0012658427629022,1.7696951923425475,-0.42927708265837888,-1.4985916667223249,0.16955947101016389,-1.5169967593835818,-0.0013899192879816664,-1.6876056363538474,-0.30181147988323137,-0.43359198472981353,1.5015170274356449,2.4607523413355739,0.98024304082362479,0.67822979922677484,0.43545125018433262,1.9374018305708758,3.0353837433964512e-05,-2.3699427283744963,-0.59849434606760543,-0.92429411336714462,0.065407666967394418,0.57013492069627236,-0.56752952499988618,0.33551049334720634,0.67968248596055691,-0.17400072915569634,-1.9103391510314061,-1.1052428867899384,0.21143835846428888,-1.3754659311705359,1.3172100385663712,1.6651310024573358,1.7884123875859403,-0.53409883963159632,0.731233954952351,-0.43724033648735744,0.47543510195541933,-0.72109990964670789,1.0762731535899983,1.4770191616203827,-0.36565913920718168,0.48058018681315712,-1.0149854257503612,-2.6387624805535732,1.7686755494573438,2.5146982011429011,0.52947752387657876,-0.29535666922326026,1.1673440433215334,-0.87705991685481521,-0.71172384118779686,1.8353352354788759,0.018004914010247435,1.6385419303683186,-0.16819860529676484,-0.55565817629786274,1.3998345827917476,0.49733464655105969,0.45218433766473665,-0.41814948055875317,-0.95657269293570157,0.39565215938306403,0.15950033275466835,-0.34697459058163022,-1.1619483763330321,-0.51494562175652669,-0.51288689007128552,-0.036778584533202985,-0.68671447014012421,-1.0320398747078035,-0.82864132081437791,0.9233474373453312,0.94288431689196039,-0.025388108583349941,-0.84512041154510953,-0.020839718252576002,-0.64746989147291689,-0.86780566206553778,-0.16560697529629059,-0.48328922951624931,-0.3519054078958872,-2.5431418245881714,-1.1016682555439121,0.57431311934847207,-0.11468019496558636,0.16590346963749275,0.26592483299441194,-0.070460780397684122,1.3954578729187936,1.1568190421847622,-0.10524089238541509,-2.1288643957877129,0.93041534676533799,0.45501341811283785,1.2557105075900743,0.55680139011256358,0.4607779831918109,0.85551939143894962,-1.1151222878050082,-1.4437085605472471,0.21789769051300878,-0.073604974497069223,1.0788121662425327,0.20384577968709477,0.17646883871259061,-1.509190210744606,-0.60097060285851067,0.37827605315297513,0.51458127866206871,-0.55093981887416388,-1.0416998703994362,0.40854061536785224,-0.19020496827370181,-1.7234279509627091,0.068090141952600908,0.69987297965956241,0.74289763578084911,-0.34131534731486363,1.7987957148301921,-1.2006902335910872,-0.63839548135159407,-0.40525044992570858,-0.090481557811209465,1.284946190281236,0.83727549022069481,0.21240409532915291,0.32349753056675468,1.7437302216100574,0.096656648898102535,-0.87759716472981719,0.53616303121663011,-0.012191233583730126,1.6687891905291468,0.93006358414079837,-1.728534464229416,0.85012131881611852,0.68478974905161261,-0.32597931237344313,0.22801270957915817,0.2101299460984406,2.3979116491625732,-0.13449133288195445,-0.93209882719615766,-0.22081808207996392,0.70097669828668929,0.61548824460095708,0.15839679918623606,-1.573566046176688,0.80939327682133377,0.81901182281871177,2.7046544062340896,1.7460687743565924,-0.8895214323388172,-0.28775766828114202,-0.58233950688196645,1.8117762056710687,1.1154610037356418,-0.3113623009550463,0.8651454676811059,-0.5992371755702427,-0.081886592348807713,1.5296074960681809,-0.63559785867473095,-1.5028449544815172,0.037364618995136135,0.16820807014724248,0.3779890646306398,-0.84090078541833357,0.52953390310851378,0.98377817580688287,1.5756628137491899,1.4235584714573568,0.51056814817135543,-1.0229056964565151,0.51847694361996166,1.9419308561500932,-1.21184366033747,0.11457850324548546,0.11931298945477385,-0.34042944275229214,-0.61107263335988116,-0.81351008315829787,-0.53575103767169441,0.70645191080971004,1.1962077667046822,-0.90895991890873351,-0.25243898913118562,-2.67346712925062,1.0883627948840031,0.97851720047907176,1.5965623851122637,0.81160144748924934,1.6196235417879885,1.2522157160061478,-0.88417734624509414,1.3519360634925224,0.47769320677639132,-0.34710456653888994,-1.1523379509414646,2.2182953888225985,1.4102397297216129,2.1676298356530914,1.1350892218775264,1.5415363824727057,0.98141669645947027,0.33247338995410924,-0.054319137957296808,-0.19324213534768192,1.7058205980226409,1.8726208401184492,-1.1950428016278516,-0.068044997975370808,0.18328169817500781,0.52183493074131215,-1.3490645723755303,-1.739581961814483,-0.42421414436771715,-0.96585316815976308,-0.95403427271154961,-1.4483825368269005,-1.247428191569798,-0.15259756959551724,-0.34291499528144942,-0.22909568509124956,1.8124230858169688,1.740242264936956,-0.38902972345449799,0.11427242382927706,0.43915018710978931,0.53394824585935596,0.43771925040177229,0.50914407206036316,0.88259165467680289,-0.66199972301121301,0.15663476600621778,1.5729228535490929,1.7889197492304696,-0.075219015995937402,2.1220132844897162,-1.1635407473211172,-2.0579517636263103,-1.2236596286461416,-0.18799551824761629,-0.61178975321626683,-0.59511516503453488,-0.14850235283258276
-0.95955196648156016,-0.40745831693016943,0.12367283094250962,0.77781509183857245,-0.94403168995408882,0.96257968070014499,-0.51426990729911903,-0.92904198399406279,-0.5250412134314999,-1.098967979293334,1.7988879195212117,-0.30724239960801658,-1.2872597480649839,0.62813770097905319,-2.180226320301331,-0.39636761702350215,0.3765814910030339,0.29196236993719671,0.90797453422867025,0.12225029938099684,-0.92544215729312096,0.0004155538733896175,-0.20004132737255115,0.46531609822172887,0.96585642728721532,0.12955684635472839,0.33418478176909561,0.14975213695549849,-1.1011750276752397,-1.0260089279480062,-0.59673417630906544,-1.2932364063506172,-1.594150792988726,0.467846932663183,0.37794734056149376,-1.1841733416589841,0.87152165152405758,0.46069844260400328,2.3301243707130004,-1.003105447044262,1.927095095610754,0.05638050082188386,0.54880984900048602,2.5420250409029674,-2.1809478905668649,0.28438634774475174,2.2817107760790258,0.014691090511507006,1.2100205731945062,0.9406334692204712,-1.1389520113367493,-1.57857682108611,-0.0682176660432538,0.57531200916053427,0.18249026225965603,-1.4611752081540388,-0.44440071528253283,-0.98900575153826287,-1.5527189946012987,1.4804557079915663,-0.25763723706615022,-0.45404945481756664,-1.5093646890529262,-0.98686324761202504,-0.30494653962976176,0.60538922550068452,0.38402481278710754,-0.87033367527560324,-0.44973121378706565,-0.85757278967820849,-0.93868702311098851,-0.85795638074798042,-1.0254829154979064,-1.8553309967977856,0.26284921119346805,1.2618987512959738,1.6629518606204001,-0.068992013389305773,-0.27335219513414172,-0.18100448496235563,-1.0076450285906926,0.32005175226461019,1.7812194623302922,-0.064736878706763437,0.98146982901369184,0.1947266961570156,0.66216216132980232,-0.93407381476105433,-1.5159220092291952,-0.040454507453385004,2.48300378384014,1.8025654585500772,1.261654550184987,1.0496809765183248,-0.26103063183650471,0.56587756907897724,-0.14554736900438245,1.7174093400017374,1.433190650027278,2.3415676581069,0.36214791284799147,-0.013896999436620776,-1.0361026938439508,0.95238485940436912,-0.40431593661110571,-0.69563935793513987,-1.0428431938689802,0.19738047197154765,0.3322189619333098,-2.8780924334369908,0.14459531846718002,-0.56560377086332825,0.8996855773796586,0.13418142100903879,-0.063264246550103265,-1.204734449483446,0.51688874181901256,-0.84682939221535358,0.53131729759822233,0.53479491029788728,-0.7503716202289209,0.97200796589682692,-0.085602290893304567,-0.45192527390790338,0.089516434706905179,-1.7228326806945409,-0.70879735163036672,-0.12853171109145348,-0.97805725788022868,0.22359104479346167,1.969678659374386,1.115185426919018,0.64611891671560484,-0.80442956740271154,-0.99138192390243352,-0.33865479960701805,-1.9956444465337413,0.42658773888762747,0.55327826397364344,-0.038852489044254139,-1.1423185714966233,0.1918501425569194,1.3974702067217069,-0.87078182093527023,-1.539811953723597,-1.8508936694127132,-1.1656003727090309,0.42063882414491582,1.317527576719842,-0.31820260465783234,-0.26876030507218679,0.31156913936841674,0.15700916434270482,2.5440327922954786,-1.3939109875811559,-0.01372134374325071,0.48336907761771375,-0.33170744217409148,-1.275985449101948,0.66660241962199107,-0.49620379964971217,-0.15266224874826909,0.50207876940866469,-0.23332508452055603,0.92217795365915767,-0.82766356969648225,-1.1176087798756211,-0.25946489143913293,0.64012611551867438,-0.1935266817333694,0.47113240821026642,-1.210506056338694,0.28173547842561808,-1.9096544868873608,0.11210117646520551,-0.36375867783813309,-0.8041443500561799,-0.93698643608296439,0.333558911646819,0.25004541237273953,0.79094000189368519,0.29891641795700535,1.1718473997340617,-0.48367307265557008,0.055213741947746753,-0.053286784123346323,1.1541372779998096,-2.1398553147435662,-0.84978972123563978,0.51720293431707509,1.6913868649133637,0.79027856171084232,-1.4862112439449102,1.4358884105565246,-0.041731163078733147,-0.47364234762451418,0.15897832625988645,-0.13634939843725968,2.0108635646713955,0.13645216816206107,-2.3874702509658245,0.58199202447071541,-0.35216559599219344,-0.5077790494380946,1.1121122644942441,-0.16209857516879925,0.44688148148122014,-1.45909454550079,-0.46024214926930962,-1.4165662135439518,-1.1438848701388582,0.11857481237386502,-0.011029891351092174,-0.1081660795752991,0.31910921889635419,1.5709020351140441,-0.63290728871045543,1.9323675501662922,1.7141406722787149,-0.58425720983677987,0.47049425011629203,0.78959196636673767,2.2791591132728173,-0.36101319893423273,-0.63801775609000677,0.21365775783730045,0.35093728222857562,1.4896044241656392,1.4149244869855815,-0.020304402435870061,-0.09622441112990196,-1.142351963677994,0.045676658707299041,-1.2974244889224069,-0.22568262795090754,-0.42157558293508141,-0.074460573001307442,0.16559450423075525,0.090934201870212381,0.73194440791049709,-0.91323185349193925,1.1483634243310576,-0.47413764784052398,1.2369157305666305,0.17116759712648458,1.7512030594894965,-1.0802078310810534,1.1100189797194955,1.7306077433464169,1.2999482838165457,-0.47485044890444211,-1.7428302814856502,1.8177415412747882,-1.0349021932992757,-0.013863384528288955,0.47937604391005056,-0.40692266430566121,0.46416406158049145,0.12843705222813476,1.8899931875683058,-2.1897939810169986,-1.1858082193969912,0.33353412784901093,1.0738919527989299,0.21402250762742372,-2.2344422962881683,0.29404872363226287,0.7897326091849497,-0.5849246489026475,0.74783352625040644,-1.5720692831698455,0.18360099030991373,-0.56679572401582179,-1.9440609121718477,1.4121967399067541,0.36336688034276082,-0.51368570318930062,0.021317471128656063,0.93298185348803842,-0.11273254869417358,0.39784414433869431,-0.72006276645576772,1.1912003099584716,-0.23175684159714274,-0.80039906710093589,0.79724512492264732,-0.92733684661620031,-1.1276031078047648,0.92258177659001894,0.40986846236941715,-0.56108756528683223,-0.47353228159599142,-0.80459145455549141,-0.61591154197313136,1.3731172375151945,-1.2931843057573758,-0.039174558740792509,2.3322574957261768,-0.30749036119235174,0.51772844716588884,0.86011433329602538,0.9056627501953195,-0.06993285672507242,-0.60591951756980278,-1.4824730059687474,0.78140791987607638,-1.3517555171668574,2.4832242815496772,1.5048644593485678,-0.50936578348235184,0.31634841769132799,0.022444989960190006,-0.70403469501942806,0.50972813698622277,-1.0904322414366814,0.66544681954563323,1.2683196281770139,0.91829374506781536,0.088076971497792603,-0.21342591089423008,2.5627241050058229,2.0428257481253094,-0.33126291004217723,1.3927581804797646,0.065519329544468097,-0.41891349701429159,0.36823424019202833,-1.4721254597763378,0.71423130568108262,0.3276358009640854,0.16789578011715595,0.67761928146760675,0.79169414621489276,-0.89151729996492046,0.68827457341984943,0.59430792172424907,-1.1746561921871796,0.65927659359858748,-1.0091779325830772,1.1781418644687103,0.17371241530037504,-0.51073590257473167,-0.58683424334135303,-0.41847443120008665,0.33471937475254548,0.58478832115005397,-0.43039591912738917,1.6120233982411372,0.85288840915613062,1.1949814001273762,-0.33272121996014203,-0.84658240098996329,0.33739127174384925,-1.2194403847524555,-0.052609535933465144,0.16073352222633572,0.027280752001800194,0.61152833155821151,0.98804354436548392,0.9564356773759668,-2.685882301631219,-1.7682299142155367,-1.0315764353587171,0.16067151184781711,-1.3509170537233441,-0.53714957919497597,-0.40058300287491933,1.1527257708827785,0.75835119942751816,1.0342884424630325,0.63614159180012253,-0.35340652912396597,1.6830904904624757,0.16092198568038038,-1.3700509225482893,2.3843339059286017,-0.63554886456975423,0.21132781941395687,0.76817795301156322,-0.32130840664150828,0.29094643999242786,-0.52615209438614241,0.12699536898465705,0.96719873944512469,-1.1883457625651712,-1.7587079789125544,-0.76642619028083037,0.0424454745366077,0.20162590416761461,0.8346396835626072,0.39375303518077032,-2.1394038409742726,0.34393313133468906,-0.76115834260266757,1.3254028806949218,-1.1728772814137662,-0.62255103170083115,1.4645661584064669,1.8280046137253179,-0.95988475124061323,-0.27611132392235666,-1.146517966700602,0.8461680726886559,0.9987791040606222,-1.2901947710369666,1.4051397567254307,0.22351851547803075,-0.023966686489916192,0.25295151764279877,-1.0748495234545608,0.31230055187427985,0.13541137167150005,0.53168137375320557,-0.8314641508567916,1.318004655481291,0.91024995330133673,2.0010657933734657,0.14974848668624358,1.3718420907159634,-0.97199765148164408,0.63920278075028891,0.31096189295231824,-1.8274923316800455,-0.54774124167640781,1.8130218957474515,-1.6900422443731751,-0.28468191986811697,0.34022236509677989,-0.46432899956632262,-0.26363378526126247,0.91441460414028375,1.9619618286204306,0.94999152316615132,-0.89373718851111583,-1.5437638769734769,0.25286203073935914,-0.72432851091564465,1.4990589709696749,0.090780576140364083,0.52032333230847994,-0.6344223599808505,-0.0075026427059977805,-1.1046558001906304,0.45057617421984697,-0.31779558924671125,-0.85574427115895368,0.62966630377423682,-0.80269354333173015,0.98338613999286983,-2.347948170541033,1.0956638488356034,0.16980257710886995,2.0972295357408659,1.1913050960064269,-0.23441246434488994,0.096128388831746583,-0.68988969715098514,0.13140157696647203,1.1443726185103527,-1.075883011911215,0.32413946456303033,0.33799511532440424,0.33665019233611887,-0.59594238992754267,-0.013878464684877764,-0.10031205092025623,-0.90800189980377255,0.78523822084896422,-0.4308929176698405,-1.3087806781639595,1.9071792382060799,-0.38832622946766543,1.9303736451019489,-0.81809630012182633,-1.5721109164187708,1.2955366572693614,0.84574866733027154,0.98896763072380567,1.4790744922542571,2.2737743796790615,0.81604386753768943,-1.936585148835499,0.31103934720448223,1.6035161509860569,-1.2026507679685197,1.4580692649905331,-1.2754733030323739,-0.61472670796809259,-0.10153694622192684,0.26881083195246597,0.41223562960025362,0.998287690022852,-1.4510516082258871,0.78883209756961059,-0.037333619792924676,-0.46939222582045903,-1.058101362125587,-1.4240972487707608,-0.44633368167091647,-0.88507178969501188
-1.5587099804330102,0.83096497418659188,0.74253988628638679,-1.7511848802622854,-1.2807635394106451,-0.064162685148183352,0.91755659769987719,-0.77410679354503753,-0.30163023246307391,0.083963847016767401,-0.45115295317699006,-0.18286892336486851,-0.20480533403171189,-2.3682102504125506,-0.40135163408601315,-1.1366716248499886,0.27730581053559583,1.1097881123944686,-0.20869022148588479,0.60685505429715592,-0.96835261462832201,-0.33250698599265366,-0.60913743043500779,-0.8283358185150872,-1.5808183670848253,0.73414390824045206,-1.5427403548306617,-0.63922259936027026,-0.58501893066838595,0.60674471222707893,0.026880380559656733,-0.8789801850379062,1.0415305411396243,0.097121657305940148,0.29094541895023635,0.99608549875876162,-0.27960667558685515,-0.021340232020207343,-0.4214921808553882,-2.2835479547580917,1.2206308347165766,-0.58667021749733228,0.22562043593155215,1.0779126211780135,0.83986564874495673,-1.5600752299407659,-0.019526374862510243,-0.35209081960129451,0.63180392006903252,0.72933103621098772,-0.49048175791746668,-0.31616074285833923,0.23688424438503139,-1.7584035006093288,-0.78614894675036984,0.30550704095093145,0.93678915284626019,-1.0165918466032491,0.9839970561543363,1.1605198062755704,0.4369225214650953,0.10631143918259006,-2.4890264002419813,-0.37348819634305386,-0.38930850849031473,-0.11647703181099223,-0.01974402957186721,-0.061472993358610679,1.2830908108521586,-0.23876529667708568,0.07265678434114968,1.1686668750873499,1.7212561640179929,-0.13358903229968536,-0.86726035381453948,0.38764152137512009,0.79102286430604862,-0.74665655293326993,0.65882145531944192,0.54080404702947316,-0.54763748814385915,-0.81095110373152046,-0.73950740406572124,-0.61519173169618446,-0.73878698043564106,-1.0120300063744381,0.57294425927292503,-0.56266240841891746,-0.13963797982853146,-0.71405444543465213,-2.5524391405327576,-0.74131575339616651,-2.0620497001966829,3.2264813966057413,-0.093349648714140102,-1.9576273183565562,-0.52059897387588816,-1.4509410597207808,1.1503574571758308,-1.3677669616473753,-0.12581583027799706,0.33259027285417614,2.226374244809056,-1.6000349592931611,-0.92400388920093701,-1.9105459053988465,0.85609855809548707,-0.86248832871000747,0.23739615567140313,-1.5188190978814238,-0.62473783220122714,-0.30680357708416661,0.68255242446533693,0.033938942208771486,-0.23558664849188815,0.98536936770375561,-0.92555664935964832,0.0087382699670135889,-1.7118372349094222,0.76808712187644368,-0.80073361214677841,-0.13543103716127478,-0.019384186861605601,0.63511750074428563,-1.9881556727663194,-0.067203880964567891,-1.2275177583737866,-0.25902813023023818,0.47463938144850348,-0.11260312985320131,-0.28013217507067367,0.65234224078702685,0.48769394274554911,0.6829153064435044,-0.59705026263322858,1.2582700783924567,0.039116442539935722,-0.81701236124092924,-0.3028419246413861,-0.16239956686583093,1.4485681638630306,0.49555597532472673,-0.26059959635757257,2.2133654285163811,0.23602025094635579,1.8539052628054988,-0.12094433362684659,-1.5340132805952709,1.140281059934537,1.1681427774943429,-1.8093520953447613,-0.59141160656051983,0.66506363130905222,0.27288459532630172,0.97861298136762542,-0.51577774381487773,1.0236709343731345,0.59675817953995081,-0.34680979931809797,-0.26110391961779866,-0.17318085842554981,1.2733048192491534,-0.50213855773843297,-0.44592113757701279,0.41483678110969063,-1.3007812507606829,0.99798788018115114,-0.98828979703336373,-0.75691448884174239,0.5220745337484789,-1.0879808009030052,0.93043678686995179,-0.40375713112891781,1.8141233075998267,-0.068017980820722843,0.13817859916377337,0.27078067660614258,-0.58457267967373561,-0.17551781517020562,0.72473868011848042,1.1485690009455365,-1.0058128187504247,-0.68772709385799236,0.92901554053914959,-0.60510318420772857,-0.95452089467609458,1.0593856601967597,0.5985646259215609,-1.2683458549617226,0.40509147955186409,0.073101994466868159,-0.26663297454815343,0.67823383043393948,-1.2331186001521097,-0.46555255170492299,0.83021854102438453,0.038596664179874077,-0.77423703517561471,0.67451116443558845,-1.9973893804339851,1.2992124440296013,-0.2320730316170776,-1.0394682911822122,-0.91406182799694924,0.29030274866389821,0.50580383174249244,1.4998784043568394,-0.89605320588301873,1.4173162513451132,3.1526562745219158,0.65618722516911454,-1.53808448358869,0.1368718520081621,-1.0872930152402331,-2.0638923804968896,1.6223716055647968,1.4302911844812627,0.25229841200623759,-1.1101736680746541,-2.2726220070166554,0.07691297747626144,-0.80610112508402931,-0.13253481600765363,-1.6599643424345292,0.055899856238896428,-0.95993028181959583,0.92306629827523656,0.37818505598589736,0.90835157418153456,-0.90506980507041812,-0.25604450928985378,0.098315733008608228,0.97025452456263872,-1.005441853174972,1.9840424678283297,0.062981485602999987,-1.4210961647337037,0.56615452797129961,1.0622876157252517,-0.085506091367839349,1.9855254398327045,0.46455373132486671,1.1337063283456303,-0.26982019517095718,-0.43295417326929508,-0.057223479754155267,-0.32253737350521966,-0.66155805020436287,0.47314311293681083,0.77493091365940814,-1.0676286001990756,-0.2729308889573589,0.58052396089876024,-0.26835330485344411,1.0895172976753162,1.5917333712331949,-0.59518255288875421,1.5213765897156826,-0.58268189768711631,-0.97921235413462415,0.37759873678978761,1.3210250784652133,-1.4314252553326863,-0.33025235755318771,-0.96024258804528406,0.12409499954382068,-2.6121759715846853,0.43459271323607379,-0.80405393463860186,-0.36608653198792823,1.4677869311060354,0.090008349689608275,0.34865288711465237,0.25301049424362021,0.37195814429452945,0.19664716383312236,-0.5754645622303689,-0.36084502777374172,1.3039789028288828,-0.76572767073814896,-0.47406677634823458,1.9636847613176378,-0.4361938809673695,-1.3094898776679409,-2.3454893970096804,0.44539205744942745,0.44998568724180871,2.0173004820395946,-0.063710389816911364,-0.72473193390522506,0.55035791274159651,0.69667238766524686,1.0621280046685628,-0.16881051558194984,-0.13890250505282506,-0.92942463070046699,-0.80045429988316763,1.2161083753744166,0.052586559966632258,-0.35945103982536769,-0.60022869595677053,0.13276355333297229,1.4345620296856851,0.65311012666575563,-1.340741354074352,-0.021499231342025478,1.0490894573931344,1.6609679003991458,0.40353291971882554,-0.092319519243723849,-0.49349235741991743,-0.96723603254798152,1.206116383736328,0.27840361442584277,-0.53014395218872046,-0.82075716613731309,-0.73823683663382877,0.43703416870911821,-1.116441481799578,0.017271551485693454,0.42545012023167994,-0.60525682425026572,-1.4107759037244398,0.7472329425694908,1.2731992187377175,1.3567776164919048,-0.32693973996939035,0.13944535134145164,-0.57909437975791334,-0.23282508730276991,0.79730312197260678,-1.0492530687327331,-1.5449626127824845,-1.6775579739094972,-0.37897982829859844,0.14481568930736535,0.04840324789800083,-1.2155573424856752,1.0125705265683311,-0.25654135480344481,-0.3658935550450802,2.190718524169021,-0.14554880485240729,-1.7395576548686957,0.75499675205937189,2.3492111916539362,0.46353153986920453,0.43447307950859759,-0.078369000312729434,-0.44644914358539661,0.35731164271431221,-0.27794178391564361,0.12584640704196767,-1.1263765916553543,-0.1903548085301347,1.6009539880552315,-0.38306388170692302,0.79269781923499472,-1.0327376330514029,-0.046205635223976388,-0.20456301168050658,-0.52688757910421591,-0.36743578035140068,0.36875882032853113,-0.35429687407370497,-1.0694677743741821,0.80284020897717601,-0.60149780669095176,-0.19031884427064813,2.1180363467361905,-0.44065870043804833,-2.4665087627472198,-1.8084596178116725,0.35907241237388038,0.72488967534034432,-0.42573636625497929,-0.27251284601147657,2.5539550381008196,-1.2178111192820831,-0.63224888142677926,-1.5030230152543611,0.78527180297477606,-0.19771773249242072,1.0939241599115876,-1.2093677181226454,0.67084416352557685,2.6407620004032313,0.19427451071284865,0.25039893231741867,-1.0221157276086461,1.7543843058380324,0.40441583813027693,-0.46753509861790016,0.72483669421178931,0.97276756715734314,-1.1189018323623428,1.6148003252574208,0.66124847155027566,-1.8053687526088988,-1.327498310807113,-0.31829512920036823,1.9924215261707148,0.13140471902747883,-0.34088848221113821,0.42275803331376943,0.63180923468515704,-0.68248449704010872,0.16467163401572527,-0.39370367411337553,0.83597515682178825,-0.70988439671179004,-0.37024293288415572,-1.3169885785424538,-1.0464077540995227,-0.61039454199525045,0.83104662149534669,-1.563366417586697,-0.36578816578376455,2.0123708862441618,-0.7052276372886338,-0.16494132613204363,0.96036273355920765,-0.16438945168429195,0.097573456423642346,-0.26381809452658811,-0.32642663159068314,-0.61181288622611163,0.91911637270453983,1.3936705393917754,0.42512944090783439,-0.68995673975049387,-0.38941611395950571,0.98949694940681332,-0.16756976580211849,1.1422914707877174,-0.40179040333526345,0.29602551723921761,0.037687138160362968,0.17742026409099398,-0.79703077703937342,-0.81710075731845522,-0.66496367391064892,-0.88234289000157917,1.4160855126068848,0.11845643108129707,-1.134173964057843,-0.14398418419844855,-0.53442300725324976,2.1427238235067088,0.055769446579492545,1.3245903084081752,-0.6287926223537319,-0.34548472379823036,-0.28081266333538596,1.2005148737497791,-0.62716552905897816,0.97652377193207907,1.2805423218585068,-0.91778447119423789,-0.12612529641221162,-2.5263910899905837,-0.35941112112252888,0.19632707017484244,-0.095167706109851632,-1.4019008092817535,-1.8484063239682578,-0.17409121326149618,0.61478707222350371,0.26796682833328095,0.73924308186388787,0.65956857754422349,-1.9329333077332664,-0.041500083129349573,0.036330094625951291,0.086446315801580756,-1.6232433499594301,1.1354475670854862,-0.7619865211956226,-0.13672654506639076,0.16656477721652521,0.2577900381005005,-1.6626017808426452,-2.0934911893427914,-0.45548783703037365,-0.37733569761586722,2.3052984790444428,0.052775727600441275,0.40802742165255629,-0.28089169864222974,-0.20650548777371816,1.4414472823452307,1.5925311148698806,0.22496291275737207,-0.81118325615830855,-0.7852079645887472,-1.6371354650157732,0.54123603424729827,-0.39583953473788497,-3.4331277828536675,1.3584192334776251
1.0254599507266458,0.27368202554005633,-0.20073261701893919,-0.13142766580363885,0.26374540156698612,-0.26968828807276779,-0.73582183948049662,2.293666774696169,0.57336444430076172,-0.35549020153392358,-2.6032697838063732,-0.41164330026427337,0.62715150423019084,0.21772651896302025,0.098213231813326113,-0.21119553075806552,1.7901308811679195,0.96615993917102649,0.44335760027317966,0.020615713338332321,-0.4133482207101753,-0.09334490369766478,0.50499363681111398,-1.0746906052236886,-0.45495496089939652,1.1950686618408513,-0.18042719802399568,1.1820897872822749,0.42813222729158412,-1.5775870224890209,-0.65070512455357221,-0.35444157760846751,0.36422876625767758,-0.15793563984555428,-0.65974110497188965,0.27286223095320938,-1.6627938498902897,-1.1206686331556834,0.62304847539236585,-1.0383407517356165,-0.50515871877289253,-0.038169736111496176,0.60729596326530655,0.93983094281026525,-0.41508821782703142,0.30945987055777413,-0.70346000705658362,1.8224318923908365,-0.043869910666568618,0.17158384490235223,0.65895535672581784,0.49597174102052138,-0.17678540769368079,-0.68968653197656482,-0.061596040484571103,0.86713198383886325,-0.95276366466007778,-0.84746188424594571,0.98558552910806629,-2.7687552591932532,0.78604566678378252,0.34600840903757246,1.282997794736296,1.6144764027272129,-1.3338482247736965,-0.23800840605946319,-1.4326556839382263,-0.52842430258897022,0.17825638481512068,-1.3894604106285466,0.58465132158757049,0.88463626122646277,-0.41599420610160381,0.44853139178301971,0.57322522140079868,0.27798356606082492,-1.149802589810037,1.3994549481021623,-0.21330452223357227,-0.4547369492194473,-2.2999007554349031,-1.3993454470722249,1.3923457450594248,0.72152383235395723,-1.259200244776671,0.91087818392211983,0.59269516003252232,-0.9479678448111819,0.21688520597499597,1.5001457963653273,-1.1121667404463249,-2.0498192204005674,-1.0163158804342118,-0.29230014577312891,1.4452066775356267,0.7584844138327872,0.49526075695825456,1.2473476253769846,-1.4827806430188921,1.3302404678347306,-0.51001477009992258,-0.10771799512551357,-1.2431086228056929,2.3317070824411048,-1.3573988491589895,0.10056189882660928,0.66748685025762555,-0.68442270743838185,0.11204105267866772,-1.075983664293324,0.82800734703151657,0.50635315166733996,-1.1626411696044854,-0.28982769851649864,-1.1228043501288896,-0.83781979235151549,-0.073248033940105456,-0.69439968182898071,1.1026442954627806,0.10648698196734425,1.0130455874233981,0.77732169198747003,-0.354492044085506,-1.1110612757605016,1.3070533273666785,0.59192291935650931,0.21388930441802456,-1.5105975508887408,-1.941146910769568,1.033667891813199,-1.4810355898227774,-0.31410953336992148,-0.36167056855097451,-0.14194893187685118,0.94332985027556382,-0.069167129128276605,0.18307828066642487,0.24600234512933092,-1.0079888672828448,0.6031758236388981,0.99509757625599793,-0.61293088336485202,0.80341949874347907,0.87862483588724916,-0.6650446773308919,1.5872055891285268,0.60336377636827865,0.78494585960023622,0.4819841084635213,-0.14637437697682998,-0.44833432895383368,0.91183451464267007,1.4618385266149365,-0.046805770745093379,-0.11798840863172821,-1.5514068457050807,-1.9879294214868193,0.99296138907538989,1.3730164634269884,1.8887953250091667,1.7880568534883128,-0.33012544820849477,0.037868957012733573,-0.47419954267365194,-1.8100843987074156,-0.17054518077959777,0.89035974377423843,-0.37231130366859749,-1.4519650968755968,1.4764425643975849,0.1063088029694199,0.94297676730708802,0.68462314036532423,-1.5594556591295317,-1.63850230428412,-0.37839548061325223,-0.18683145853512281,0.1805981148560093,0.44833932844420293,2.0044826922405972,1.7254063135142499,1.3413133389149139,0.21539760700059629,-0.60304471218699918,-0.46303612518581599,-1.2837475433018737,0.22033981017020901,-0.96585758360636409,-2.2527953754464218,-0.21069413561853678,-0.19572293787369049,0.31884900262514465,0.24609598692556592,0.056899955117127338,0.052772847533677676,-1.6722449097139582,-0.084788251873267398,-0.71471819331093089,-0.7950896525797736,0.94794766736829794,-1.3046107002519627,-0.15533116888401449,0.89278701436462193,0.65715263917373035,0.23812467487508179,1.5369029351793502,0.4254883520164825,-0.76930614619342641,0.54644972794152302,0.81937483338256334,0.3053896643319009,-0.53559385701772355,0.096230962495887931,1.0025349563003207,-1.6733093216270458,0.24589783513531677,-0.73544687743931891,-0.33650111912577835,-2.0279016142917863,0.16390159673437907,0.5578672249064115,-0.21811383265325526,-0.22452606372462908,-2.447517712926258,0.4195767580235672,-0.15658649862401589,-0.40376213247120313,-1.1304554407683383,-0.39773499900342613,-1.0834667015261952,1.0415927229937203,0.14675326660454444,-0.93061624582997682,-2.6100124419818496,-1.3179152527598461,1.4032638713262395,0.035158563640543442,0.18380985522889823,-2.6506859356938559,-2.0071069117507743,-0.41341134600376356,-0.98027982515871503,1.5598372273422869,-1.0913555392555816,-0.72884064745353794,-1.1869824903631292,-0.67098404019769653,-0.45148811131066052,-0.81393815104352618,0.84082730555715202,0.26483691250539565,1.3952532862936973,-2.4643366155179529,-0.50497667149901049,0.72351588068061934,0.11248668182980071,0.084863101903353666,0.65094455529843098,-0.76728493288192268,1.9597259891350685,0.79721737519296343,-1.243510220254872,-0.60310268811431389,-0.87454841030631247,0.82357882828517859,0.62744277743163979,0.42341507809643009,-0.84235996056894391,0.69390474875377639,0.23490050090285569,2.0899610950443881,0.97056150005938047,0.8088820542787285,0.70565150680357103,1.0057852152663038,-0.033852371659399402,0.072404567597048872,-0.10592525091872471,0.11421307783941721,-0.71157802237864975,1.6473609896665349,-0.47382711364019331,-1.7338548868468928,-0.74688050550623364,1.8023249720016847,0.74053143362388674,-0.23098737937861941,0.41873019309892751,0.37311269847051065,0.8756309517715235,-0.253636006075805,1.542435824665414,-0.13464290870639861,-1.1495117530484376,-1.7100283865785666,0.57693566992250467,-0.36607634590575694,2.5394363069987302,-1.8722645849396444,-0.74913974706878583,-1.4979277987861062,0.012920117246792961,0.30820142383666022,1.1441358660395309,-1.1689802102875566,0.20900344084576783,0.70393154068300046,0.3473786250682166,1.3335034149952016,-0.3787044020899914,-0.58913534168472659,0.30674064920246669,0.51564543195588275,-0.081443168758018936,-0.62486344831763241,0.30692219521220854,-1.4104242553091872,0.37692802661409924,-1.3399659389503955,1.1221635441638713,0.10354283754074685,0.10376673845037468,-0.22017159019295587,-0.32000566813300085,0.96831310637983825,0.24918037520920938,2.063949661712039,-1.4378807395683393,1.7708231881118723,0.64030835027299926,-1.303507084048144,0.57202518471999342,0.60171667173799748,-1.5834682097206427,-0.038697581750297035,0.62391945737625798,1.2391469318663424,0.2793804628285399,-0.16315535930504013,0.68840699088883528,1.2226647175853524,-0.01852083954765528,0.37471543885161168,-0.77022620642724893,1.4812426959942295,-1.5696300211820926,-0.4227771997043428,0.62683254298401148,1.4447584782605027,-0.68025303817621574,-1.9246789231804322,1.9926793369725162,0.25160398882429136,-0.21449319759051458,-0.80279584533846837,-1.0067950745580325,0.11322051895762655,-0.34944875510001566,0.39636462498514419,1.0718741736132018,0.91204888007654927,2.1068956170785653,-0.52261789473178089,-0.65037032668547801,-0.75275942734602552,-0.3001675646894062,0.20142634583165553,0.014267302677027588,1.1289017119592515,0.70457644115120355,0.67763894650302547,-0.99729964356710732,1.0958885278814685,-2.1048298195932218,-0.22033848287871996,-0.47136075647026948,-0.55612704867848983,-0.016607054904587346,-1.6000895071751435,0.28619168221890362,0.15418605844682992,-2.5474804815557692,-0.31334948213086583,0.07937384577885695,0.15545335884553074,1.6529736823474315,0.42805162238588612,-0.17709892722088347,-0.4408305239456507,-0.027711241630339372,0.36034737708539488,1.3643684052891443,0.38871586667980412,0.12267275870858203,-0.92421526211072502,0.60933568787509285,-1.0709457045946069,0.053746161851278278,-0.12985254891900211,0.56386738296817651,1.6865269750397052,1.3465376077419728,0.54097558471594143,0.28324532051772078,1.0136834715657372,-0.55530254334013862,-0.77894310885393114,-1.2893367605432375,-0.59433290708095698,-0.60044054226321608,0.37223935838915084,-0.41442126459408185,-0.30650141145341947,0.020625825062791946,-0.24075700335048303,-0.19481350442830161,0.69894956906991557,0.96520302332676466,0.74356471760540255,-0.51923480103933506,1.9409900308962769,-0.21010104671724947,-2.5149674313696666,2.307134180192246,-0.23242786368368248,-0.61205340462084767,-0.41290714713317267,0.65735842151668344,0.90526405737086613,1.6101855272597305,-0.87409211258072228,0.77657365642946696,0.83705480121192233,1.2914596064039214,-0.90389574139232765,-0.48925433863616757,0.92885035661441107,1.3410566128582126,0.53594931196714501,-1.4236225490053438,-0.49367441705670689,-0.17846564507692783,-0.80023559569132519,-0.12812208086956545,0.68021107147173188,0.052553386617432585,0.37833749433550495,-0.5478281135175157,0.059125030341028791,0.39097626357576087,0.53972995078486952,0.63993676261643873,-0.35600061580431352,1.1652858131504507,-0.35718344762227894,-1.0418492881530086,1.626536072693209,-0.63184034662018584,1.976400320891887,-0.48354971221054932,0.41379777068528006,0.25668880501530805,0.23779051327541151,1.3775130444261257,0.03490254413706196,0.93243537521048558,0.45197642672894417,-0.45433695739336721,1.4458574099941592,0.19724824819238448,-1.2529233434622744,-0.19982029035393409,0.56355452940024686,-0.44084475682432561,-0.50341179305615125,1.2274229030912558,1.2061090472925315,-0.24560440899190994,1.3415066927889501,-1.2656698470077661,-1.4267145049806551,-1.1203187213156542,-0.21572357772980957,-0.99738013613536891,-0.59662853333125088,-0.6478924077749203,0.92655659007161784,-0.24014116011576669,-0.50627080722144002,-1.6499613212012632,0.1015496310796327,-0.21069762549461024,1.4949256561680169,0.52543078051822945,-0.44919454013660409,0.022902980507672265,-0.24958482677139779,-0.86646658200089477,-0.54078897474274901,0.32167260961956823
-0.79887673989431929,1.4761648061449932,-0.2818539181278466,0.28241994532555981,-0.036105829624424365,-1.01262752741145,-0.4563319370244347,-0.32279368421648036,-0.95504701200033948,0.85856507593640508,-0.51045935297584555,-0.34724794429293893,0.33390835731093615,0.52427471290865768,0.67472442760666484,0.92236929093429754,0.25036805831864156,0.54197135555843312,0.8929304983643781,-0.93161971549577116,0.46225587850053834,-1.0062172340150219,-0.13122888049153081,-0.59935224267220011,0.60495051554402579,0.2297067031573827,0.8684033133593223,-0.27917263109928953,1.048740420203095,-1.8013330961162604,0.62066828395364781,0.81324150705007403,-1.4464687997405821,-0.86690867111557701,0.70233541036122615,-1.0822875464311343,-0.42895088896347922,-0.33951057242950189,1.2218760541510201,0.14495954362111702,1.1329784333606419,-1.9265135916984546,-0.21824380453130071,-0.85855750319389834,0.58187654914046283,-0.80573914088862142,0.41136707661708849,0.44813425836206766,0.52908313850136091,-2.3910753394362105,-1.5742160542026093,-0.86787055830857562,-1.2994516253549413,-0.95094053361579689,-0.88920400056938376,0.051912149743257543,-0.59367176480697725,-1.2781023032862944,-0.27435112276015811,-0.17582245080610254,0.2716655363790611,0.73902127992151223,0.57626654767183227,-1.7143700859983775,-0.87141833218102649,-0.36249075072894055,0.2409704636973973,1.0791193013605345,1.4072261954953984,-0.13900711487792186,0.33659968961876258,1.1926027361194533,-0.058314157443836549,-2.539626866722823,2.1716172949271684,1.3860410657094202,-1.8062642737648988,1.4079295725051157,-0.37268604166225822,0.16404089996980969,-1.329268774870999,-0.66738971366436373,-0.74780350552401875,1.7890729806934331,1.4537110580684662,3.0122362588682123,0.43634919090377577,-0.3766213270713113,0.47734953813026343,0.38702635666603225,-0.45766198960151638,0.61288925024816654,1.2041865327772567,0.3769981611555081,-0.14362902420685733,-1.5405613616775553,1.0290444763385966,-1.5352695198721125,-0.83386119825268468,0.75075004378920596,-2.8023021470346081,-1.0815228574476057,2.0175778364813244,0.45518865667900132,-1.8809345456142594,0.48629671416201392,-0.55683022772971602,-1.1522959088572899,1.354100159799059,-1.439034548612147,2.1532003053017892,-0.7240917743933436,1.5998878873443327,-1.1526814143560296,-0.59175914135415164,-1.5420570632439512,1.2178869760551398,0.29958058210759736,0.48786188629827726,0.67674504107602673,0.2092078267156095,-0.5346911370854408,-0.16014845953846502,-0.56041210151449794,-0.19525897465564979,-1.0640334522974497,-1.1653072263766466,1.3291850636498943,-0.25597861293288865,-0.4031182349789042,0.32894502889483024,0.39299923786599783,0.22636766522716689,-2.4300840951297755,-0.76993393463459225,0.74456002807765043,-0.038522253416627239,-0.99721048496854492,0.40141117329427711,-0.89092409143954199,0.47210050275080812,-0.27235944621596442,0.66814635531547839,2.7386240776682031,-0.95542420959286978,-0.5640541815633453,0.88936337529742815,0.72192592484097684,-0.97813853399133921,0.25646867558843367,-1.3983761870480416,-1.827001252345279,-1.2818559771497748,-1.2325029635726925,-0.39121046848750624,-0.20137138292228077,0.015616440568113872,-0.79639350116987306,1.8462364675516838,-0.049519972827944382,0.33439920443312204,2.3760545333674044,0.042451252156539256,-0.18762864094982021,-1.8228265230114267,-0.0097988465192956255,-0.44953111817415864,-0.70609073616407769,-0.99056841698481524,-0.88442935869456718,-0.049313125292113277,0.35127267254225625,-1.2683984878795864,-0.57027181389581771,-0.19975786581295543,-0.87167391793899474,0.75340020241373162,0.15680071531203704,0.74957088662676308,1.8971489868200968,0.053447536351431416,0.076341754348904639,-1.3060122592657954,-0.77263693375517462,0.93317420946103524,0.66214071417399545,-0.49256376351695902,0.14090197102165675,0.20331728550313186,-2.2331160372331773,-1.9663722580961027,0.26330481887434698,1.2912294267178637,-0.91606992216347394,1.1532969841122311,1.0603599131537069,0.15272721629550751,-1.1334442883264568,0.56670074097280065,1.2893710134786129,1.3199791848398885,-0.71975952181537906,0.22151319432090469,-1.2283629972222647,-0.44225776471157718,2.1740289194038445,-2.0703891260412601,1.9820313353168804,-0.50129297579832832,0.91443320275955831,0.78800483669625465,-0.13692222875381219,0.86087693748830396,-1.9217873323262209,0.1022166511724464,1.537496091756714,0.32156454905369192,-0.86005799048438358,-0.5306442319073017,0.22609350018804544,-0.022748596789562904,-1.0082485102347438,1.2045099424039734,0.63416539974420372,-0.23963629768859157,-1.4799103031684806,1.0470644734628338,0.15017332481121612,0.023727528871486443,-0.20345427563565474,-0.59742751036590691,-0.35299573029772863,-1.2343655194151204,0.66739682943671763,0.95792976040593247,1.7749546959416089,1.793525488936526,-0.081316889207729837,0.55085919969142028,-1.7602449390121395,-0.85460532465831873,0.83260100181163221,0.073247650008376436,-0.49166958467652822,0.33506179482480924,-0.96137702165838079,-0.20993476634876718,-0.47863321704144707,0.85845326659034937,-1.5214287504151838,2.1126270177979283,-0.61062926792884686,-0.53619070199427987,0.61437667738601964,0.42785012325062988,0.93537247046166871,-1.7792470213311429,-1.0078379796398143,-0.59640152138047975,-1.9186945640848967,-0.041851989745465661,-1.8839197965814811,0.55859952646924282,0.33069157316838227,-1.2999408784129185,-0.040572743757425637,-0.27359140175039154,-0.11780831257039262,-0.12901790755684855,-0.14735489827813208,-1.5674704970116742,0.031994135961388871,1.4075800193315318,-1.0014456441149564,-0.85742226227296348,0.096777292258822992,-1.9494409321765012,-0.040863647350675436,0.48204828756194074,-1.0655833677047506,-0.79941958934593049,-0.24758419769747669,0.86634213934267823,-0.40657860925275335,0.57094789814765168,-1.8175486674480459,-0.32677085985285098,1.2884488022078877,-0.098859457259417888,1.8498260502049206,-0.4166345934024881,0.83728793366111387,1.2965880020047866,-0.78572492446790698,1.7721705785457862,-0.31459947862709875,1.1545951978812659,-0.59044960838402849,0.87725452464051668,0.3123454449153697,1.0243182300324813,0.82422984755312223,1.0111368414138573,1.603512310937887,0.98546988404706848,1.2661480982730111,-0.57457040969012507,2.3233804243727905,0.56295064438691655,-0.41116173284262519,1.6076942821961824,-0.22654069698952048,-1.5770178575357008,-0.73330483198743768,-0.031482973936644204,1.0775639663446817,-0.48246700404701509,1.2837151223514316,0.77969165748149249,-0.78518325799275523,-0.42194850025510577,0.58817660091291346,0.26078496429954745,-1.0557473082167645,-0.99601952002887528,2.0935771505067047,0.70971148285642904,-1.365441333446582,-0.053989441163271736,-0.4662643721582968,0.025905731004855655,0.059100035697941818,1.2029039559523345,0.11520941977603644,0.23543055770089322,-0.030140661927933632,1.2265218604301904,0.44534106960778724,0.61213842300042387,0.46607100894896569,-1.9314453257151907,0.25252506962225896,1.2057564535056731,-0.74090463668663908,-0.009148108764985988,-0.12359678546808642,1.416666934772504,-0.88570645062382869,-0.98559339089314446,-0.06011611410421687,-1.4412780840680708,0.49412714482311682,1.0070997482457695,1.3857689493796577,0.26103268941380331,0.46525014104500323,1.0423440955102596,-0.20352851920123624,-0.88595948900084176,-0.54163706293679592,0.025129984332297128,-0.27379609503870667,-0.50551212610014495,-0.86634093242490351,-1.2570291833967859,-1.0008937977531807,1.5072454151044556,-0.092085951787878886,-0.22460644676131883,-0.81556793986182619,-1.67231820012313,-0.91132832944829401,-0.72523032262760856,-0.53022391070804886,0.086701326822133523,-0.84034104567274359,0.33134418203345739,-0.056238240992833533,0.64699333767046097,-0.49821222545891575,1.5510222558965481,0.88759541375086326,0.4425729989871654,1.0902827512418782,-0.3511888732778975,1.5416175535904115,-0.80306410946322293,2.6598032021020668,2.0225003692982582,1.2423859954634628,-1.4682608417210716,0.53923592542992527,0.79081071811749493,-0.54146277015129518,-1.9948852281993807,-1.1608973605721311,-0.086374885833063339,1.2500494109323856,1.0159567244762508,-0.4728941718330853,0.69161959910132609,-1.1534328055614045,1.0077209611991629,-0.64573308986058842,1.6519510747438757,1.6729683517839697,-1.5475586461966038,1.6035484484687832,0.12488614334682928,0.85964172129602068,1.4267758326818527,0.99661068071489178,1.0004227628393128,0.99063387391361291,0.49563024163579605,0.82309753820756326,-1.9784076949869427,0.59323675440785462,0.027455947327501985,1.5493001971743028,0.075554155571486023,-0.76604617285855336,-0.64924203434224836,-0.23275794146717835,0.38464387930465249,2.6913580922066185,-1.5079930753418791,0.4909482797070901,1.3208128496772436,0.44814647638311633,2.0794445376124635,-0.64842161502309947,-1.6821220474002387,-0.75787991399063848,0.39375567103314607,-1.2610003917683581,1.586917414440979,-0.21609812757269051,0.55314213797078216,-0.30492739590699347,0.36473573167494949,-0.33236838421233084,0.17143497428895224,-0.87350033282045558,0.94064436966260179,0.81238925667456163,-0.50375357870798387,0.085033652169032872,-0.72778384821944642,-0.36483355163740128,0.11431884793847652,0.66040110299168286,0.75029922333177446,0.17711612311981634,-1.2859363117230296,-0.65021312897228689,0.22193791330323592,0.52339230484110311,-0.69829366381674185,0.24351230276498245,-0.66268036771374961,0.15803219680972996,-0.0055704584396514363,0.78437343586451691,1.6169385230925633,1.9213559237281763,0.17634602615214953,0.58751453112543894,-0.63610308827289397,0.31016144110443583,0.64197159264797032,0.63573323500982004,-0.42875196444970903,-1.5817458451300168,-1.6135432429305243,-0.48000848480764491,1.4698852236250894,1.0130548630574014,-0.21553208304695093,-0.56415444963419148,0.015855757937527703,1.0093017513013278,1.5161070824774354,-1.8093882354122717,-0.24129212528651234,0.76594482349817705,1.0642018942571112,0.20232836917139807,0.24192688268268328,-1.0173182978113318,-0.79923284697444197,0.48864677883303187,-1.8184687108616153,1.543649154275605,-0.26826356607123553,-1.5108613798425927,-0.89047425761745058,0.27554339330386096,-0.12973500001046664,-0.63332406469029934
