-0.11815298110130758,1.9422302448118234,0.53104310878942318,1.8411951298660572,-1.0719718455970189,-1.8636492848077224,0.020302938681934946,0.75658477447356109,-0.14242859260836252,-0.38484928404202196,1.1719222888604697,-1.6253109481488957,0.44522799471615371,-1.286898382290421,-0.21427692998396239,0.28225154890058324,-0.4517035077456959,0.098296437229684439,-0.59741824945275812,1.0818269970363334,-0.91754248467509714,0.30814343827539087,-0.54666728957707322,0.037775873487280447,0.58458498187726671,0.79257748705405906,-0.77584810765394507,-1.5317287164753752,-0.32205569598273343,0.38735576496064955,-0.32120759262774196,-1.2626739470571089,-0.14301771616575742,-1.711808823041457,0.8972302211029286,-0.85382632207694287,1.2221188508255014,1.6412822383992471,-1.6927353315741518,0.24719892522732961,-0.64044008657299734,-0.98917469033685335,1.1331370869252047,0.11255868346566766,-0.66717138534888765,0.13435467445384253,1.4988113839480262,-0.44467770865235051,0.57126865973853336,0.88932190369614206,1.3234253523605159,1.0541621874034361,0.9595229032021253,-1.7467300099505985,-0.21520517282249463,1.2723280020221557,0.86880143458430348,0.77694733666276117,0.67145520261864111,-0.92547786329644477,-0.20157607287825322,-0.018002689279023043,-0.029900671806982946,1.4925569441372368,0.31571921859982205,1.2481370212565006,-0.74120605893903979,1.0960495620762036,0.21416697107701235,-0.67281677746093804,0.52276641819907665,1.0373983914310172,-0.084113308973587583,-1.1424626655820986,0.10657490275902824,-0.38076655518657915,0.58658481036639121,1.3989528214926317,1.8683490914400145,-0.88954621986549043,-0.7194867834588432,1.4911060314737561,-1.896854635230329,0.1025175754952774,0.040220091865386935,1.8232837819722527,1.1721435269470375,-1.8314329385469517,-1.2910752590850287,-1.4484359794232335,1.7032633606030985,1.5461668014813721,0.39842151929045205,-1.0559009812856488,-0.41705346996454173,-0.43748219476584183,2.3124899408664081,-0.78390856419819144,0.32264213786163504,-1.373637691644471,-0.89227315931548035,1.9099176969157556,-0.016829617869170171,-0.4439323936798959,0.31969912572726467,-2.6644776613945949,-1.5778176538773507,0.26366138764851482,0.80201317642086678,1.2394869507847155,0.45351437221262142,-1.5937438254426315,-0.46752325609593381,-0.27536426988996321,-0.7375667566622407,-1.2270028285702661,0.65361095693309623,-0.10469100941734595,-0.24052063345712185,1.5138216331920435,-0.40915442322828399,1.6424210973790598,-0.445506402834147,-1.1936047220705601,-0.16373857436458486,-0.00074877231907213794,1.1662982275153368,-0.15866638176022804,0.4002886033012692,-0.97505077549477159,-1.0172031348857991,0.70891690996717194,0.83570153576692618,-0.61424039156298049,0.49832602118001862,0.060506885138785757,-1.290086457706864,1.6444514224936697,1.0326414906496013,-0.4162035876555546,-0.38537497114300451,1.3721361296740853,-0.74704429062537281,0.47576179416996872,-0.67381548246939826,-1.9553704748103553,-0.4862926080976076,-0.5117318811331224,0.037223352624538922,-0.1401272805095525,-0.020704372745250384,-0.19090759067105523,-1.9720804971765722,-0.14811521253968307,0.81612445478215134,-0.40986667319050135,0.41544464215547927,-0.36490971207410078,0.26128582414233936,-0.39877143519290331,0.82464458420517728,0.85720393853427523,-0.54944713647615651,0.11365884102231719,2.7700384721996145,-1.0741329273031506,0.70001465492559356,0.17021174152674143,0.62846985262042343,-2.2798628198187827,-0.59821714800481851,1.9176950183845065,-2.0518488350727035,-0.7186320584411342,0.024757445848852654,0.096199846106444387,-0.6379352783565474,0.57629573216065666,0.57831024197511571,0.17465920495371229,1.2914925842466518,-0.04352863993293847,-0.87515272262493526,-0.68885706201806518,-0.099106632240444636,-1.5463765587049831,0.31339065178327957,0.0082179337443457137,-0.57702375619666579,-0.25822052508236448,-1.0278571479133525,1.4262009924362649,0.95593591833457059,0.55131770738345354,0.31098711252616013,2.4342620816333098,2.2015707457559524,1.0399253698178681,-0.89460462978818067,0.85290250917300603,0.47993913226566459,0.79938700683278363,-0.30993956908637954,-0.78720025775874924,-1.2553009372415593,-1.4902429142782201,-0.12662289173343769,-1.2170193680219075,1.8179873464125358,-1.7927475156552299,0.46963795017470611,-0.24467935925905851,0.7165992285310383,0.018019328573945705,0.627037604510297,0.27074317330821568,0.75115331517756578,0.87636256570861126,-0.39664137466147653,-1.5468823590724028,1.3685343470441818,-0.99127733790558303,0.90902724698141957,0.25894513158348453,-0.084815859422044171,0.0085982500066495993,0.049111559737872734,-0.67745669925209573,1.0310909347245025,-1.0848424333038997,0.48706699430553529,-0.60435043447414771,-0.41516335691705158,0.30142332333193395,1.9089761476570175,-0.35479344566528226,0.13025878707669877,-1.810453941158102,-1.6539002555961424,0.6776867701656224,-1.3567672256309182,0.35947702519395824,-0.67444518473755832,-0.10201393667566622,-0.21645933580156412,-0.30382568099226509,0.57902348691973982,-1.0913671892089174,1.0520326214721432,1.35786103466491,0.099482708440619003,2.895066307647566,-0.25664407550651164,-0.27010904011980191,1.1310069688077937,-0.66147623390306021,-0.46643588002085556,-1.5904438101220872,-1.9732364556180142,0.21354259377705961,0.25334588373917677,2.5807442628536541,0.54806466940470966,0.12299976005068078,1.3695742609118169,0.50429598758852356,0.098153464452783834,-0.06615151703721335,0.45094038588430108,-0.040592941233812664,0.84599807125990034,1.2925918215747068,0.090515936530446192,0.85334585954438347,0.70991430643925268,1.0974742628122427,-0.063014869406531768,-1.0837103165152056,-0.17415825352613815,-0.99960694398924754,-1.4271076013400346,0.77098241226776054,0.29745968701617209,-0.54288960599698954,-1.148725884729922,-0.57410919649376613,-0.10559041678635651,-2.8738489525191353,-0.65688551198083112,0.90068960193437897,-0.39565198584945388,0.35678646236173511,-1.0733886354548545,1.5247995002827137,1.2269721889734486,1.1908633977186103,-0.28120814358210855,-0.38452999149079753,0.50420215113537781,-0.46122950721882672,-1.4769364158417655,-1.281175942110655,0.17919039661918054,0.45827835064777778,1.9731697207766001,-0.57627888797798332,-0.32979755339316391,1.0361990328630153,1.0583082204894023,2.3277346338812523,0.58682711753075412,0.23866194476143224,-1.2219671413124746,1.8113706895556598,-0.61071996530847128,0.51099637843098789,0.062128997967048669,0.61752924712169288,-0.70287035501991646,1.4358110117343799,-0.063993994125618237,-0.84439906098905104,0.08787687956922384,-0.35151980060452787,-0.16095386005170975,0.21256983089345077,0.21890468085284473,-0.76298538075176348,0.65018656771743921,1.9274681018642352,-0.81703953922365025,0.4585450456323254,-0.53269154642109573,-0.42614936079064919,-0.084446948137428271,1.5290908990826606,-1.8961950173351041,-0.36746152484539019,1.421814782657753,0.11515710701695957,-0.32833300805553045,-0.60891607289654737,0.58975099475163273,-1.3963486487803562,0.3087399317370535,1.1576776232562387,1.4768657428695893,0.57641819513091808,0.025931945059315342,-0.78283375522391097,0.87354519818110854,0.95859989052851091,2.8229431218437289,0.34628752442365029,0.41614913123670327,1.2626603050292577,-0.4327968267146472,-1.9968117978481217,0.026269505333915654,0.45864662487469765,-0.16291010255061164,-1.3288988473691665,0.15052697421423111,-0.029524357764969852,-0.17977879824722873,0.48196154059296648,1.0581920857309801,-0.20653271933272019,0.0062380243881991881,0.25859384261171148,0.79240372072217646,-1.4751100569642901,-1.2468673534230725,0.87902261234928625,0.57760979635159282,-0.15257149556228616,-0.71338633730145395,-0.18191513820022451,-0.45211565026453882,-0.038336749378581357,-0.85074930390810199,-0.55262932836447665,0.0024983739528110448,0.70504188313121274,1.0960825917779977,-0.011960691107311235,-1.2773561658167316,-1.2595719983747689,-0.27087439986100947,-0.98866098543641445,0.56204745986127169,0.086701513480179515,2.146360427762489,-1.3652465184276097,0.053464439003267278,-0.17264304731057756,1.18447950007798,-0.27255624203762036,0.6142228500500897,-0.20348089882930925,-0.68182129752031706,-0.1288024563008516,-0.40695257401992779,0.43318249783530532,0.25742690404918833,1.817546848091548,-1.8061172743317073,0.93185986401436227,0.79198234754925356,-0.37750588503278132,0.21072928711996811,0.44282245449925861,-0.38846869118291999,-1.1719475767665579,0.69874179020757543,0.56562503910674566,-0.86257570683178841,0.27586752985531621,-0.91851002809205806,-0.18285324522419402,1.1123116417700276,-0.040200079208652158,-1.0199908126333574,1.0742235964031337,0.0011197896976737518,-0.77181970338121786,1.7984853901010323,0.47745119590058821,2.0377699158962304,-2.4022233830783422,0.7918049648742147,0.62120251579652996,-0.9618294027294837,0.46612548048630426,0.025841921808577962,-0.026758444533428207,1.4151162426942077,0.47885942540798987,0.31046706647650563,-0.15895502440633733,0.82584139968607417,-0.2285235227322216,-1.8516771188670582,-1.437242443928602,-0.21008427241318314,-1.1110441576179362,-1.7452322486493286,1.4627321409207328,-1.3376404299980293,-0.37266529807798876,-1.2807702492054895,-1.8927770775023802,0.44902196062836136,-0.57085539248404837,0.77398293529611562,-1.5987840553563941,2.2247451150755921,1.1992194771121063,-1.1179512969644008,-1.1892232256546171,-1.0432302999024621,0.02457345989016832,-1.6290579374061813,1.6974981047612261,-0.010960816969034212,1.2199365592916616,1.1998866197221723,-2.0542274586265563,2.7150224534287819,0.15428870619680055,-0.24692666012098535,-0.008881425492807616,0.16792218493445657,-1.137657588031814,-0.32937363391933533,-1.0516736584752928,0.066341330774388682,-0.031591962324243501,-1.3496992017615688,3.0195166045647337,-1.1518417799911813,-1.1555954009812288,0.508197619087704,0.056052165580112431,-1.0731900847644069,0.095505054131641412,-0.33253949156870938,-0.7109254810891753,-0.50036020420175853,0.75178098233587198,-0.39472429978019069,-1.6602138405296085,0.43578626148761945,0.12777842189122757,-1.0385432209505421,-0.90243590398327944,-1.5905846563241539,1.001246652942853,-0.41970424034300696,0.73561959781851494
0.35848366205347854,-1.1762889229329565,1.5103298455013037,-0.73315911065954331,-0.11737390246103108,-0.43234383316229968,-0.53041209816312829,-0.98726279917871163,0.37571548057462895,-0.70426540377138491,-0.26011906972159415,0.28984923106873389,-1.6107567977789092,-0.9676592038157229,-1.198688208605216,0.5584355038180534,-0.023230035960688681,0.80423439611175118,-0.49449120500367838,0.52802732785574269,-0.49399400925264947,1.8773459181825676,0.61527173351789033,0.12609535945648626,-0.47491016369944256,-2.2762666433264402,0.80531535870486803,-0.21518554004118876,1.1000799885172807,1.7638743974807325,-0.39662648564869779,-0.86529427315727803,0.14488245507474642,-0.86343611270502318,-1.0643594669311103,1.2181931296420343,-0.75094948274780893,-0.063701239181241723,1.2454975692704551,0.88255691574132666,-1.7704582697476519,1.2403166081704013,1.1550829036245518,-1.0447005106012393,0.2164289020371313,-0.25510264462536553,1.7552100642051325,-0.83589551179243915,0.29206869925926687,-0.3059652494460679,1.9209901544001333,0.45717878663581502,-1.2200882377111977,-0.41815547145958448,-0.16314954606939311,0.42366567623537382,1.6017905829660368,1.3290256413827606,-1.31804241835321,-0.35848469260682125,0.47245034157088001,-0.93246480373300356,-0.79179820047714078,0.31389667757655948,0.060131867432758113,0.33079029068375376,0.29008186340220915,-0.11788229797499887,0.30905200411627592,0.57947650619310898,-0.75239372690214634,-0.41842957193357555,-0.89684893802382848,-0.2836851698750294,0.50401042754420433,0.21379556290743948,0.70031837481878723,-0.039138339935635591,0.62503187677446381,-1.2930535309065172,-1.8205561852985741,0.2065581492173402,0.29835391394817884,-1.0765487530824274,-1.5886660379463331,-0.28575896232301107,0.51428075289587671,-0.16562937064681055,1.6333573884357619,1.2887771314444989,0.31306555982668727,1.1587508600573553,-0.40386377320369143,0.014847363002986114,1.1532513985729556,-0.67679367753863029,1.3285681504759514,-0.50137466152580812,-0.44788954028765848,-3.0171244682105947,0.62861111606060027,-1.4633719205710649,-0.81192032422171367,-0.079238316751111648,-0.042933411486646839,0.096040011142923654,-1.6690846757446041,0.063179789631128649,1.086685185994321,2.1249489455215569,1.9235965473479331,-0.82875257540656344,1.1044736460809117,-0.36741770756822018,-1.4746075165300978,-0.38603316182843778,0.86129461596736123,-0.9947737006866717,-1.1906924745554472,-0.3933366220866909,2.1985117510773819,-1.4159984747494201,-1.2519026404504736,-0.32683156034286476,-2.1639368675430646,2.022893624500214,-0.93952388260438469,-0.00652256102127809,-1.0966255415663364,0.83748903981335998,0.17142646182834442,1.6409064295872506,-0.85239423803826198,0.15120379202381526,-0.026785444670954735,0.11922834190705403,0.22735946957936848,-1.3272066837959258,-1.0571928191538977,-0.37563508832209275,0.086696213979677958,0.89451616692331937,-0.92492339317724837,-0.73345353434268046,-1.1517033031210846,-0.20501548165441283,-1.1837014820061496,-0.19729256835272713,-0.36731859346774925,-1.7390294590238289,-1.5013371421599708,-0.77989737403645654,0.23486999969774536,-0.33614378342524759,-0.26474854554315225,-2.0521250539299825,1.0718042162204386,-1.114434861073089,-0.7333974313361753,0.32042123486700064,0.74372177063865708,-0.12126962689609785,0.040371864535340835,0.62101985617407651,1.8379563454916279,0.049070717006745465,0.71634679047844174,-1.1422703964470446,0.30845785018931493,0.4887724771276804,-0.78200500627794844,1.1978614380745316,-0.32700224678392753,1.2233193436931635,-0.44949707859982746,-0.23235585796016192,-1.2469203621089839,0.97508938037869808,-1.7435351827242431,0.19618802374148339,0.73704708298435151,-0.57225621709418395,0.58182736050693151,-1.5008587747302651,-1.5375423786162077,1.2663318607100311,-0.28434848898895287,-2.2199513969043294,1.508998171223809,-0.21269903618720293,-1.2307979359569807,0.71876102250304275,0.37323386452891644,0.41730467685956768,1.1802644659362522,-0.90694817894633584,2.8169390457793289,1.31898361378933,1.9180598655341543,0.70454024466180876,-0.38981083143202633,0.23057695793245914,1.9494626149818457,0.52300635502869408,-0.5026459447023568,0.22259523236043857,0.27519781623778777,-0.17037142270556321,-1.0390906113421572,0.33468526285648081,-0.074835869358950244,0.34206096090321908,-0.46366187859297142,-0.17802265077391397,-0.56634811633315185,1.6778602463393302,-0.60639044127879227,-0.72072009586187669,0.087414746776722924,-1.3759889981512423,-0.53003100659960389,-0.51454695786242532,0.52977708047732297,0.81365175116308108,-0.29491319766736562,0.20353422249823083,0.9403167031420534,-2.124405223010243,-0.59878329826315146,1.0901618568798681,-0.57331834345181099,-0.81887991408555616,-1.1113044247348296,-1.1989593080231511,1.7606939033001268,0.2304081824172855,-0.89016545207469344,1.3280508133701769,-0.22389487332250968,0.42052827340585691,-1.2347998716108426,1.1135768969198803,0.29163704567208809,-0.39104368834403103,-0.025036166544828497,-0.61001703562161669,0.01907733121967678,-0.47335548722554621,0.52529541061699092,0.84637432776424604,0.47781343137747018,-0.72059944393542985,0.39372266014107155,1.0819585360243062,1.4012742679008199,-0.21369757714844984,0.27559068038518952,-0.77832809646750956,0.25023916051633016,1.1094677186704243,0.28399271629665873,0.4331541013435532,0.41361535707752911,-0.2619121058870425,-0.36790806290698108,-0.94365387012204271,0.543344249473105,0.016639902012806282,0.56628248636652978,0.361977651667994,0.17199936371767527,0.060843766477385791,1.4553391152421427,-0.30365718141922526,-0.26147806702289556,1.2252376092527693,-0.19042898762788793,0.099790238492006883,0.28412928979493096,0.82135695770453532,-0.42483810489771939,-0.19540058707566019,0.24883802022179988,1.7662085395256129,1.1558196055917702,-0.085277615416153765,0.81116580111092085,-1.5269403669003625,0.39097132355964909,-0.40963597922435968,0.024510570984772252,-0.075991216140406284,-0.19715843373837352,1.9942665477766783,-1.3334594700086635,-1.8743212735816324,0.15190431829396289,1.8516852295940478,0.32349413680462147,-0.69612086943075968,0.3455214355527379,-0.60470566849873808,0.29658028120914337,-1.1009587166779526,0.95293250752546288,0.83859425142511956,0.57766178351772968,0.096288778412497236,-0.36063508935769312,0.97886693479076148,0.64275423381253405,-0.71875855144869671,0.093594185173559122,0.31302045523619232,-0.21250397263321211,1.4009904583389976,-1.4116859473305079,0.6398375208415128,0.24012483547035746,0.87215463108245495,-1.1662351538632592,-0.13536923024178518,1.1011991869136413,0.037779289352714775,-2.9324871368319894,-0.45928033985361005,0.92912535776273242,-0.6531025507210827,-0.88957319292304637,-0.22051751700881167,-0.29948710268568235,0.41022797260932925,-0.068879914973029338,-0.14043248145612691,0.7319051414718053,0.62619713488030604,-2.3967726273980663,1.0590723890448246,-0.64977927147482428,1.8014049310438864,-1.6133031713480483,1.0716520310140034,0.16913288459001852,-0.21087502442066208,-0.16517579287410347,1.1879851834197852,-1.0176504033736422,0.22579596536526805,-2.5220923591712041,-0.35135515483745516,-2.2497753390461739,0.28063879320319424,1.3013037785479495,0.12857529564337208,0.92168489567213296,0.16481809218641111,-1.4549387327791949,-0.15353822779009371,0.95252269054510919,-0.40479550574324957,1.2790807739495149,-0.64190861978211855,0.4410073710448566,-0.40026978095518051,0.62307926577473138,1.8722941811099258,-0.6535068070403578,1.013479380402672,-0.19651080362663939,0.97631679188249643,2.320658645777919,1.2227562987023401,-1.141547797302175,0.12754196857120126,-0.27863403562417205,1.0736260177402741,-0.83732401374852528,0.14461158873056554,1.1930155835623111,-1.0490976007819908,1.6047803325811696,-0.29228178730082893,1.284704929316729,0.25540855482289954,-1.8124193999003329,1.1873930770941368,-1.0614908378551389,-1.1828384974638844,0.9378184540716894,-0.38972322457161446,-1.9151517405935226,1.4075584001185273,0.0024823264439520925,-0.65017268159093711,0.42919259820715117,0.15056003285359046,0.51230378135059518,0.95464282253789035,0.61118936808754198,0.94936511402481305,1.3840975166369993,-0.62348182297852361,-2.4897062933596152,0.96077429592563035,-0.34176765169549944,-0.15788545350348063,-0.28225808990231765,0.1521275293404189,-0.84476782893185864,0.39763078504890204,0.57399038367469613,-0.52962877213491366,-0.45271355701765686,0.5326099157535229,-0.85199107207924618,0.73922839762964199,-2.8448668014803782,-0.95302442828024791,0.48637684852673169,-0.74436847232076664,0.44606594336386701,0.31653795610137475,-0.82089905579357236,0.90087436427218959,-0.058512746281249563,-1.2059789040160427,0.31445625287661605,0.68762580773520432,1.0159717894991744,-1.3834315986450962,1.1514633416812439,-0.043893616587040413,-1.5770819932034343,-0.94315058281763942,1.4222910518524319,0.86738558579323644,-0.42270962580061039,-0.45072396598968795,0.81065443097332524,0.18252934061734322,-0.71720129423269352,0.22865821122976607,0.34321554248788816,-0.29790975198520786,-0.6047971604659419,-1.7294796346342887,1.0530638804332666,0.37726182952994813,0.10405905064019211,-1.0419624340958593,1.4191611601692347,0.98259476200487883,1.1987210816657319,0.1820336456422629,1.2184308980294174,-1.1187419788628834,0.1865646728949201,-0.4659278322089726,-0.24708359328866586,0.39771161159245116,-0.28198767669002572,-1.8423951080015253,-0.43900992698004337,0.74019745960506433,-1.3495950125943676,-1.5006690648142527,-0.55220755279513511,0.88383687583545778,0.51530753941497798,0.11912599047042104,-0.77755520863937677,-0.74235164594228431,-0.49803256792094036,1.7912402928430884,-0.15237820654087034,-0.02626630896127179,-0.58152576295439995,-0.76829570586095808,0.20476367166840093,-0.40163006951723962,-0.51296218456749865,-1.210050931240287,1.0580989835570389,2.1368855574737933,-0.214450633311245,-1.4429386888095554,-0.50530475602598612,0.29652017297163163,0.11221516563453221,-0.76574223837302591,1.3692556642517399,1.2358553695983905,-0.67646159489261137,0.32726447268985492,-0.22132450330856582,-0.45097747457048337,0.33745301041225534,2.0221268288389993,1.2805483881411435,0.17454810235104823
-0.30504887264243208,-1.7990312716355366,0.6235509101512221,2.347479084798509,0.57895984966342706,-0.54361347401471716,-0.11696226632454949,0.38847549196956682,1.4878739762143049,-1.0524713341525092,0.037843893392436448,0.71239557968296408,0.49547111325928628,0.86960460529768679,0.81292816326209827,-0.75731401742869875,-0.44766852282300729,0.8449571259306935,-0.49394934253503059,-0.6409972425394822,-0.1200589974918559,0.16273080354460737,0.87253521352263286,0.49490118197982624,1.1333996031427096,-1.3931138017779128,-1.1117666555460841,-0.57940291396404331,-0.76343120934440301,1.1282121969404977,-0.057067887303639167,1.2774659077055732,-0.38342688613120218,-0.60601580155043189,0.4708711449384762,-1.0807675515656285,0.19339561808205366,0.28343459652362091,0.32300424919901061,0.68709782916970885,-0.024201866937620636,-0.62113155574207235,1.2044281047684353,-1.2884082063285538,-1.8079925845998628,-0.28091341903343392,0.33235755212653922,0.047582011816894892,-0.42518455103083624,0.5643561215963091,-0.74325955855435488,0.44181552287228154,-0.3725567682380268,-0.6520342180682408,-0.094177510851017998,-1.2100319627342626,0.22081534221099461,-0.89506865951955561,-0.009398333449904565,-0.49971649689974396,-1.307808627756323,-0.40631449412663134,1.2053935661743158,-2.202970977341117,1.1171275809717407,-0.53133236999869582,0.57114766877569934,-0.57731539707581259,-0.058725045793071445,0.38789889771246755,0.075979495244965334,-0.78154076821362717,-0.98279851970718823,0.78350293601232635,3.7122115088404235,-0.7365189187567579,-0.080510748139969918,0.33479687980394907,0.46694679416178581,-0.16404398491384295,-1.0162849956286359,-1.485393311255351,0.39355272715998219,0.33545558391524166,-1.7327587682897501,0.35518469194119634,-1.7872580723502998,0.22012677873580738,-0.49297529881609298,-0.17011460352066146,0.79412566618163127,0.58027317559857494,1.0009163425882837,2.6521371611987661,0.65081066959271727,-2.197359254334867,-0.56823143944249643,0.78988107218986781,-0.14330865911219864,0.29449061101467722,0.10625427026649178,1.1296794412997053,-0.069565615146807688,2.1631862659364378,0.87867608554109833,-1.2439682690028804,1.2705442172438561,-0.76271010313336096,-1.3373840280604423,0.15641121443233821,0.50116355091155518,0.26485274883449061,0.1499699166830801,0.5513791695625434,1.2486472096744132,-0.78983631371523189,-0.34989668996763573,-0.83007838959561497,-0.80534828989522489,1.7787838290594218,-0.23134761299973225,0.45686564164797372,0.27668102366062941,0.79086352864075482,-1.6092794357170348,0.42090938787726878,0.35708252176389321,0.6176386273188339,-1.3970439795340315,-1.523581470483647,-0.79823028515022276,-0.53036279884330229,1.1249462087007407,-1.0660660778324456,-0.61275585059177984,0.45699258274490112,0.34855367446937552,0.40144834204538826,-0.5014216925539966,-1.1443711124015501,-0.16776729697357037,1.3133990766627603,-1.2495199867350946,-0.65032346860226276,-0.21816990359228228,0.26720635587936409,0.50997502448963805,-1.3899661470803739,-0.3084253969890382,0.30074391906943343,0.89876726516677607,0.05181736902816457,-0.87812574572256163,0.48052148183226895,-1.6924986270046105,1.3404291863963933,0.91916047466734474,-1.4120232650964422,-0.12207260663325105,-0.3525823138142351,1.5201669929849493,0.55845099358310979,-2.3377228280953193,0.19978390104470414,-0.31581789566271273,-0.91305802533315927,1.5585175049382929,2.4099779056049719,-0.3283096464285975,-0.18716063797059937,-0.13383305961287723,0.88487576329434614,-1.4113328504326255,1.2464193299429152,-0.089287846447076741,0.2464640436108845,0.15598566800514496,-1.4624635279932254,0.2852265517151697,1.1310350585913009,-0.50822822625167863,1.1893705694310686,1.3190470431087611,-0.71046979601518567,-0.98844955504934173,-1.8156987596258638,0.47957588140643265,-0.0710153255664632,1.6033085247265262,0.72920121749497702,0.14185802689876476,-1.2012013159274513,-0.15142473009395646,0.35707552013245603,1.580967103341957,-0.077866154699323092,-0.061950539026027721,0.083308317139253851,-0.55497866025044351,-0.79116517168875267,1.2950716437101626,1.4488691015071762,-0.34174572356872479,-0.17079876370404629,-0.87140639314312796,1.2736602686946752,1.3428757090396901,-1.8945204423080431,-1.1914151807754951,-0.39715726910109406,0.23849535344502806,-0.50305800605493622,-1.2469027628806491,0.11541596034663654,-0.89554003322165365,0.42156416223266058,-0.39087126646348402,1.7004942568630792,-0.77099733959326378,0.82242570557577277,-0.86878033177784519,0.028870487355973189,-0.62784182217081885,0.2454909588067079,0.056291643363591881,0.1344295992821691,-0.98551020877082562,0.86146919039660563,1.7255879425483391,1.7832423874431158,-0.80094905908828984,-0.6117429098344368,-0.2522830354840202,-0.74098847478618546,-0.1151697687453498,-0.21091816758754758,0.63067316011403562,0.067276230351797126,1.3481294439238489,-1.2349549529183363,0.42647039717079738,-0.82481869023063092,-1.8080598496230036,-1.5920200665008644,-0.27710476882166507,-0.69341634063474233,-0.53672546375434949,-0.46537970042125809,0.49702324788770957,-0.12848993924005148,1.4726710640130869,-1.0710969098841516,-1.8408142074828717,1.1836171768276578,-0.015349913409243675,-0.41023068464410922,-0.38898552296309963,-1.9029194921930179,-0.42422690692114157,-0.038265657086859223,-2.7915567299343125,-0.92634807283702891,0.78485165843265403,-0.45164911340127145,0.18251778824226822,1.406460402483352,-0.6600101117495123,-0.64581151268277126,-0.67335508489721663,0.49733398236319915,-0.40057738884552291,0.96825334201345448,0.72017904967540236,-0.42811445518989544,-0.041730629132980965,0.78452232588518844,-0.78832166146853722,1.0880679319857141,0.1845130108376449,-0.60750799599188998,0.12134840090163744,-0.85059951459712058,2.2686560857817555,-0.080163174424414618,0.011452259382829481,0.26963051536847654,1.109887060288173,-0.81819595688243663,-1.17677013927088,1.4256674910019373,0.87601235388691379,2.442255107084816,-0.53418375858668088,-0.34704605217571566,-1.4231198867402435,-0.41129632135159105,-0.031484653798329244,-0.18328400662608468,0.27853474120627214,0.063808781540939566,-0.54059122078983612,0.83575604225263955,-0.80891656452267569,-2.7396804662160856,1.2731117894828139,-0.80937600088081163,-1.2582624560084437,-0.71998080262515596,-0.065292706363592537,0.28812125478938594,0.16806962996607908,0.59861651297731133,-0.0026241801867551481,-0.1632608180187789,-1.4117876388540336,0.30627392093870398,-1.1842654302193079,0.19687960398870172,1.274771390029003,0.1163026570531102,-0.93924872799616976,-0.3414181707552123,-0.54796067237039536,0.73460044181450046,-1.6351190042045072,-1.6360905741810265,0.72750021808932985,0.6638914560683975,2.2245507129917996,-0.087501205603217308,0.88385490062511651,0.32154052384617521,0.12148327397799125,0.11922639713407751,-1.1390516556558332,-1.8679138308076115,0.43076824704102717,-2.0949393090717847,1.1747715623591481,0.6475175633936614,0.84671552860005295,0.46146391225198696,-0.6634255875597157,-0.43016628716751143,-0.94427045544491195,2.3999674584928741,-0.87048781559965793,1.1651323906520592,1.1161002245813134,-1.2231657457649339,-0.60275303566086458,0.7793920264071319,-0.54622570454536257,2.3861846829319813,-2.0150335471634255,0.23729181589709125,0.9306912127033854,1.6692550765719503,1.0592058898810253,1.4134930370360315,0.72275622266780348,-0.71644382395068962,0.46652561592506281,0.4092050528006399,-0.37756707032210679,0.82498342912310474,-1.4562385176556403,0.073395777985645005,0.081509918802297646,-0.73498734986707459,-0.005933592925594258,0.57515405160053834,0.75010126833538515,0.71279446564012328,-0.63508105173330243,0.71186116664597288,-0.21565076017302767,-1.1774683484535755,-0.62638204899802352,1.3593232979246102,-1.7295750398901379,-0.34848084801873369,0.45970432583351528,1.2797580816909195,1.3858982901949901,-0.4228746390680273,-0.19948993085426506,-0.52947324723143341,-0.54245683270557499,-0.9163437261031947,-0.90589532044505694,-0.58545124993662923,-0.95880185341872126,1.6292581236176886,0.13880716919376496,-0.77989135432262635,-0.54830631064109947,-1.4021545654568561,-0.58774569127897125,-1.8887315446623931,0.69205246628168138,1.0053867788957169,-0.014026262968716226,1.083419774814157,1.1626613173763953,0.82044234699618834,-0.73719181726805627,0.34955526735029691,0.41965262139592924,-1.1667086791879919,-2.7109951623609221,0.83094106518164768,1.4729369264944288,-1.1602422589514876,0.36419977836306061,0.63991845946365089,0.50236198130642129,-0.74225341580424176,0.26654925895875264,-0.21086790409382669,-0.15164591959958443,1.9360648607792603,-0.64713287853076973,-0.22268287713544041,0.67961728397182053,0.84013379584862347,-0.5341571118366687,-1.8123469809203003,1.3123652234744241,0.12255985261208831,-0.77393045955536244,1.403416884534006,-0.081518338308203875,1.1071952929488673,-1.5151101940462026,1.0449281086655229,-0.70469502157373698,-1.6001618892494878,0.5011692983416538,2.4037483983561687,1.3434749276852052,-0.10633190710432061,1.0224535715676832,-0.65418144070600437,1.1521514358847977,0.055302741987490245,-0.61699767192739818,0.90636920411526656,-0.94523136375457528,-0.084704357880870856,-0.1683501562940414,-2.5199000972859817,-0.3461851961274986,1.3872852724075067,0.51853159942499294,0.078109564056766501,2.8805658470808111,-2.2220060664128178,0.33387472814981212,0.45821544606553571,0.60365759400410735,1.6396252818176731,-0.77364285655140153,0.065391904206003701,1.7274190929715694,-0.98298198452976193,-0.40267208390298825,1.5700246040727186,-0.20033786965527442,-1.8864898028845194,-0.060555909233348727,0.73970310107631332,-0.2620417394745323,0.8137985451639449,-1.058657347626855,0.21901850754846688,0.65109912909405321,-1.1573644471041946,1.1298474485372794,0.57862634125257051,-0.54143649739472,-1.9933633983290195,0.10832642536859609,-1.6220478956835473,0.50831253696739109,0.36042427960479306,1.5272521598127433,0.25494829659564522,-0.46602074267488847,1.5415282949787352,-1.9138142546801429,0.1586212850803311,-1.2307297147232921,-0.15439721774658552,0.36958012657138839,1.1401433259242135,1.0020752808548077,1.6401000874396676,1.0552325854630074,0.9447431419096467
-0.69709798255582556,-0.95282114121932604,-0.22061712139687412,1.1342226415688148,-0.19468727735524086,-0.50435032051868678,-0.44226094275262084,-0.60249986858785631,1.4186822656006335,0.91826296056232548,1.6069588965320769,0.75441533588249932,-0.094987054742800572,0.71828858392076811,-1.1291184153783282,-1.8182011230899011,-0.4572275060520945,0.75012548480916363,-0.57689011945469781,1.3509992620733293,0.24492757908041396,0.094447926618404482,-1.4091636168352994,-0.11081730193830729,-0.49160104739716826,-0.47420576329227188,-0.29426749768955723,1.6104160635742988,-0.28618378621313251,-0.050324626953313877,-1.0208949626705084,-1.0732200514097188,-0.1036151362666448,-0.48883109577333417,0.74562107217207862,0.88164621275449928,-1.6775513574405236,-0.49826983661511492,-0.97583204401634882,-1.4937293507549301,-1.0953523824221894,0.66952071295654758,-0.58018098344359426,-1.4621739509675462,1.5084953085809905,1.9851212034892964,0.19530720606008176,-1.520045522015445,1.592404453050243,0.47104140521782273,-0.35557128784670078,0.12122041183665358,0.83241593242221867,2.3958093074627875,0.38756885475357356,0.20735663547945152,0.68096905641444694,0.30425671501852813,-0.058432149147662711,-0.94065743358647236,-1.5630018498709111,-0.0063659549669964977,-1.3224288467050951,0.23911866836516907,0.62314469745980516,1.7364284698886463,-1.1302449181136576,-0.4067962928961415,-0.99264954309591058,0.25615600158169094,0.26712176252570824,1.1607213604577065,0.47349253326687035,-0.21587978879769704,-0.91578218140488343,-1.4630095698325167,0.61700460243574229,1.100763024653741,0.604644922021222,0.18577375163235041,1.9656677286814874,-0.4190697386301982,-0.65933048151448848,-0.33277960669767753,0.23451899037831012,2.043283150898513,1.1503908788956929,-1.2649576379681458,-1.6360926491848733,-1.3026805868124356,-1.3149937282124637,0.55034396846385647,0.43686723085564505,0.29602166602276575,-1.9221785016665509,-0.0064192849776900877,-1.4426038644272625,-0.28213523238801819,1.1138531719450369,-1.1024690204215528,0.60864889337438288,-1.3690270876800783,-0.006740490678875815,-0.26511019502075062,0.29827796532495743,-0.15787779932673329,-0.20640190667423369,1.7572715402120334,1.3328843593064674,-0.56633369735248207,0.49632732559158788,-0.75216907909189146,0.15265003234713856,1.2993791768744678,0.31190863907420285,0.32943101570398703,-0.93072476259359371,-0.53958941814117001,-0.88711721935513854,0.86885018924470381,-0.96153670243728295,-1.5537980224494699,1.1278553677027499,-1.6613443142459898,0.50104842255862547,0.88323454824173342,0.17715252141198448,1.8927884045061156,0.53660983150410591,0.10939676627259533,-0.33111781506908583,0.3667486180674811,1.1002174341475037,0.50105235662347025,0.43496339887262248,-0.42627211916384378,0.16620619159615893,0.023478410079579421,0.70580359587989783,-0.51115152528274443,-0.059604867645176689,-0.33280794846412637,-0.15095874905180606,0.79433987968866515,-1.5886007852796082,-0.6533776453627762,-1.0146269767985625,0.54212701212059156,-0.36075587316307889,0.35218631692390906,0.88205802911059228,1.3531272045047855,-1.1255422788610365,-0.52510080898018974,-1.3322302511677053,-1.2226490434676016,0.56258734379187048,0.82794529340158085,-0.79940624033756613,-0.33390427033740355,0.68815878689505461,-0.73972840521703942,-1.4961470334483451,-1.6253501459251323,-1.1457009854285007,2.1636996709400051,1.8952643545593357,-0.19562432733715146,-1.2847413831766696,-1.6561046780154238,0.31105978287156849,-0.97796056193204517,1.0092208503839997,-1.0640414251631198,1.245455990137416,-1.2630255821486842,0.80727575906111471,1.1756176262699534,-0.58436965093151105,0.74279902226294237,-1.5915838777407576,-0.30667140561709577,-0.98945032560629886,-0.86464352074863815,1.6746953149025063,1.1661507957013475,1.2225139676843375,-0.22835603787327977,0.067707025857825856,0.67819793532903305,0.78906327401576604,0.44326927688697865,-1.1820103062001568,-0.7322132924333733,0.1159458427691161,0.38886694275566847,-2.5759919121073143,1.0328078789385418,-0.12652644434642166,-1.2666529756362273,0.052403818924265516,0.26580404088747134,-0.34935858649918206,0.88223430493540311,1.0098621429594521,-0.89784945564714147,-1.4700752590265955,-0.9319741051353394,-0.58131982888931832,-3.0887406066769447,0.39447353467168345,0.39072335424607196,0.74478504013722757,-1.7801960574894677,0.78053093454235445,0.58215278643742785,-0.46956341006074021,0.78211529594077189,1.4482582261353121,-1.0737340974391194,0.74994740998173803,-0.60707384850486612,1.0559460669856713,2.3271639623169942,1.324461396633076,0.21965550765533656,0.95592582215586153,2.0686066590948893,0.10540149830222335,-0.0067321809592333004,0.033107051047208763,-0.65734505586072578,-1.885441449567989,-1.0622273577615045,0.8680412863272865,-1.0765939418019708,1.6153091340688677,1.4008152653561483,0.878122638890245,-1.5671616452699642,0.84130616764163069,3.2370685885235915,-1.0380729886228837,0.60189820598913213,0.95031409619211393,-0.23011148362071746,-0.5099632905205802,0.3616667491650723,0.37535328984478494,0.27946880046863093,-0.40452890195134256,-0.75411960375255993,0.79708253716301314,-1.2950672777118684,0.56508798007992478,0.85638088812423063,1.4150484245109136,-0.19153283893541809,0.52120530812675547,1.4477909175650265,0.034062551368224052,1.0881109312855561,-1.6498606105955138,-1.8334979409488124,1.2207512590641625,-1.1491028805013341,-0.043733288578296281,0.54648342926227178,-0.43098843669124237,0.29407687307735425,0.94081757151469203,-1.2171594916421418,-1.699043279101303,0.84744779810621818,1.4577986328881238,0.7736855911605498,-2.4711135827613773,1.2623158592873314,-1.9156047608375488,-0.15734136061663673,0.41430448743207521,-1.2386252201477601,1.83601964325809,-2.1549953546066196,-0.054545999966223176,0.20768149405902661,1.1204163855710967,-1.2649804784324858,0.77941955984349498,-0.64632374599716469,0.7683848985128926,-1.9883634474479057,0.31687914259056571,-1.2874716205543608,-0.83692724878809732,-1.3452917850869839,-0.87146391773190857,0.86234017187412748,0.78828833755321515,-0.17040798080114147,0.21618110955065503,-0.23301564439226177,2.5152405431112355,-1.1834984069731205,-0.58404485774114001,0.35811115033742186,0.5363869502047659,0.75208925175709629,1.5360699904351838,0.3773166157691355,0.73366951086675536,2.9790481298869835,0.92056703397038586,1.3264397933574907,-0.12399334103652455,-0.052374811657271016,1.1993837675206422,-1.0264804174295883,-0.31360178836499691,0.20508716506085775,0.9953003053906091,1.6348558741687071,0.33819117135833843,0.13078004955962208,-1.4219324845423975,-1.0127178342811103,-0.98368960097389546,0.44140779999722596,1.2007302170302505,0.083548042351700838,1.1618191897962851,0.54596955412444403,-0.22127085345320505,-1.2954741464360662,-0.58096857222825604,0.74811494122420208,-1.9591607005586094,0.78932230573808471,0.87016266110198703,-0.3417322037629722,-1.1750063516707401,-0.5512981201553061,0.25236534545805284,-1.7925548754646095,-0.95561703873043169,-1.7681748386984417,-0.56038135159362834,-0.14637529724454562,2.0710613574511956,0.39366923806493326,-0.68333733742799851,-1.2834655686074639,0.97756955541330504,0.65905896489483629,3.7319671108256309,-2.162722262645262,-0.77373601917208301,0.17226253567434641,-0.74663479313296199,-0.043173942107422147,0.99870074553678523,-0.035321995980782991,0.31977680406218528,1.608517834878106,-0.63993225679562293,0.87165472654164433,0.66399069223584761,-0.84669513481604508,0.46395316621631399,-0.2914838277866707,1.1363330315336071,1.1484127203605299,-1.1409394643751725,0.17162839485072384,1.6417450139898631,-0.42271093658657161,-0.60621417879073825,0.55553279693273094,-0.39737988477398062,-0.88619771917712109,1.9526091867888498,-0.80738617590003825,-1.9395539524237932,-2.80761705392896,-0.09929814016847438,-0.14849047158444872,-1.6167909737681774,-0.15330513446973151,-0.10145308850610249,-0.27272391281492009,0.57415356037561271,-0.42582837540870694,0.65265200046603844,0.31432903437560061,-0.63290977838452223,0.18934574996933509,1.0531136503754579,-0.090987887329506217,0.91499031535717112,-0.63084789966795518,-0.38038909114894909,-0.82161874618301145,1.4254065805921456,-1.3668787166198875,0.62868000231914634,0.39632221947431678,0.6297168474328384,-1.1563710919659611,-0.32665910406596477,0.47990796509465444,-1.850838520197976,1.809482138517138,-0.49920751907841815,1.3721104335100602,-0.49336307822049269,-1.1846186835539845,-0.7089830581058475,-0.80531452203145815,-0.29784475635964713,-3.1714577139779583,-1.0242048587083805,0.47624727131978373,-0.39843099876645832,2.2227826281190053,-2.4017092090462131,0.21595991677774307,1.1917852338097972,0.60287959157441895,-0.72285460477812202,0.36651141246760249,-0.029805333051956803,-0.37197522890704243,0.5702686633745081,0.27047151711682271,1.1813420339019323,-0.87007000522389133,-0.19999729160000931,-0.15858802026441257,-0.49221577752404594,0.4483319799845914,1.2154079433783613,0.56885452683898863,-0.1368427605699897,-0.761682155573145,-0.051862463294997191,-0.25520163879449653,0.96724870866363688,-1.7041271836026091,0.53970337354871956,0.44501744477179989,-0.79410347106806622,0.049913609481636971,0.66488906140795445,0.22606041822869452,0.35748652805640813,-0.29187106189669715,-0.44019274051235324,-1.1260128025353748,-0.0062695494569262869,-0.60756022168443535,-0.80351362455179964,-0.24758256467014891,0.64201335067606125,-0.51647751377507234,0.19863373120416727,-1.4975871501705285,0.63582761913201846,-2.138545460337979,0.071759480929118338,0.1041284030947542,0.16563344539777072,-2.451098467301362,0.84940798934968309,-0.7985421568567761,0.93965136906973756,-0.34518587299741971,0.69215941862419861,0.2723123082605024,0.49777164969550697,-0.60828687712888374,1.3973400204858901,-1.0517480954261462,0.33250183626169783,-2.0192355504266803,-0.2846199974737989,-0.071579969065928298,-0.35557763555310057,-0.18710445148077048,0.8180689368412859,-0.89392502021605746,0.8580193150134191,2.1862858695663543,0.21380463248008474,1.6465738187807084,-1.1742306267791303,2.7969249592802514,0.18689353919073243,1.4156707569757525,0.27268537431258066,-0.63523297565247028
0.89968253069092041,-1.1026152365656181,-0.70769964081953307,2.1468813347680302,1.355141582598288,0.72948646251857197,-0.5241761411877579,-0.59802076935759296,0.60727071975305347,-1.1363008376688757,-3.3920914182421704,0.56595401469611528,0.82642185454238337,0.098965296655241938,-0.31661796947391713,-1.2378015135716138,-1.3868382457824822,-0.031017725848898704,0.48221301949897055,1.4088389934169434,-1.0349568545095771,0.27994449666761784,-0.8762943423339522,0.27386738388251169,-1.8020507264671568,-1.2765182872412539,-0.40130152477049064,-0.47771141770579695,0.68362247175715407,0.83802623644722396,0.83469923008848335,0.56921879606137271,-0.49937349917681073,-1.6114865278455011,-2.3426149989999283,0.59972603773537381,0.35920513120624792,0.57644724360600907,0.17962212403772568,0.11308209021831794,0.96902556388163374,0.22118058376877717,-0.76384790138443026,-0.19395681491717764,2.4640302168013575,-0.14209188060036887,0.51817650240512969,-0.67634958596951256,0.45299637805900639,0.68542739906027905,0.75569123266855598,-1.2973159799912553,-0.56124813017700936,-0.76998343512130607,-0.63251155740512766,-0.46541559256588133,-0.83883571733037487,0.79867212992214576,2.2875778661658228,-0.061216147927200294,1.1191094889926783,0.080667660629486451,-0.95712417402254402,0.69075741658458978,0.21656474182616553,0.18682202338996051,1.8784097304748033,-0.99272631500126962,-0.82887447250681412,-0.099110369132065987,0.032477097797665611,0.57182890082076299,-0.88625857341043257,1.8152423512568208,-0.22382623871376497,-0.50669496791758228,0.68355920912026003,-2.1567682123942364,-0.88870601225628398,1.5157574412938799,1.0707399559972182,-1.05827555717828,0.83821580976255372,0.5745162764597791,0.48143528911014161,-0.2955172982220739,0.90532379684049957,-0.64359621877458784,-1.2105421497225519,0.25318911407755407,1.2373548386853563,1.2159814755877361,-1.0248079329163788,-0.40649258515676689,-2.2771640304583491,0.43011462002990647,-0.1502537248080551,0.023021740467462956,-0.46514390971786207,-0.59177747704463568,1.7305336537801814,2.0107177809037182,-1.4791457150208736,-0.19229068374416558,0.067567778410799292,-0.1506772740105923,-1.6169382309882581,-0.50955324323345075,-0.54892567127367742,-0.80930460533045967,0.367638709145093,0.081682505140669756,2.0371883330537486,-1.3953849517225623,1.6936967055308871,1.660156379961043,0.97092487127860017,0.30700976711080419,-0.39883882092586048,0.91423604658585877,0.83135992847431839,-1.5493022304064847,1.2419783633361914,-0.18263662139085801,-0.75425096191995733,0.019599138927366311,-1.1828545314581929,-0.72838677245891015,-1.6637617938612481,1.4318296609947148,-0.87340233213170915,-1.6971600916642469,-1.0931938958026843,0.21263343930465395,0.32373556140431503,-0.77361656247751298,-0.3409928890120083,0.1322852698038024,-1.357854822870584,2.511373506932197,0.63803597144082314,-1.1595806250479337,0.8562724576117603,-0.92087615074996232,0.99657069357658767,-0.19897013955757187,0.45970466323641684,-1.0876912100602434,-0.83112855950295361,-0.088346437104619729,-0.66403069628257827,-0.67749699805659758,-2.3109705068949808,-0.52263730823463495,-0.070397866077325566,-0.72219600160164388,1.6455552333932582,-0.37833844539100941,0.50039477874246119,0.92892833437490563,-0.37329156445185635,-0.27334516479695126,-1.3432172013355752,0.96657160872497894,0.3048867465159345,-1.5186528256887857,1.9108408069734744,1.5700216088253656,1.8310038099100761,-0.37545025332276311,0.087113052120563444,2.0802254006160257,-1.9153149132562377,-0.17457654769280173,0.94902818554215396,-0.027813402919917948,1.4367680758123238,-0.94720633511739882,0.45311145253652629,-0.5351632158588171,-0.69560112176987798,0.27616837116647464,-1.5491490464269526,0.090438935897153266,-0.27898780774398896,0.72981754479071526,-0.70403115495107471,-0.64760031163112119,0.30820498838161797,-0.46396419903843333,0.61626912991106708,-0.26475487324837926,1.8357142987635948,0.13135147307094094,1.1759803693150699,1.7892860499456185,-0.42600792143923638,0.18164370581170786,0.79676921226978947,-0.83001397961605883,-1.3944078978719712,-1.1657967559741929,1.0833431252675469,-1.5736936886940616,-0.80929175152153476,-0.88250919508039805,1.2088377152108023,-0.85990131089301269,0.63640181831137277,-0.16288253478047801,1.7761716821520006,-1.443247802853483,0.80105339198292225,0.4445393284091993,-0.10615756105286424,-2.4603052803972667,-0.15363544400783638,0.76515649923617757,-0.4835243565022016,-0.24264555811219563,1.1531327376291189,0.5630219651004077,1.910712371641073,-0.077013415232663168,-0.4401801860158166,0.44165481804200302,-0.2796744629931931,-1.3532806562616564,-0.077185374574508359,-0.77990496121615249,-0.68667167200461976,-1.3947964798147212,0.33749750475684537,-1.2487862215889347,0.32050293934273322,0.47651690165039201,0.98382707450729223,0.75428906574207877,-0.21513508420643293,-0.23118143114988263,-0.98609346081558547,0.063878213491283295,-0.13162106985919389,0.81119045001704704,-0.77393574085576289,0.64829089675369345,-1.1401966544469766,-1.9002070982776094,0.082415670411307054,0.5771503486680134,-0.61178747362969732,-1.4797191262038978,-1.052329687546127,-0.68362561886038486,-1.3984065464786009,-0.85790061476468527,1.8876204981585734,0.0191622180859672,-0.23152504039222749,-2.8144267822807247,1.1641456061198314,-2.3634571259749153,-0.76029709471472195,-0.13647001990319998,0.024118125217513629,-0.38833165847589851,-1.7198726180550354,0.092996530031723507,-0.85773934881311953,0.7445932787331272,-1.8774971864321262,0.49482743389513056,0.63584249554330619,-0.2566592946707566,-0.14189290088898543,-0.72220374304165635,0.75592086763374533,0.58115607061163532,0.98641793327704774,-0.94245391298667591,0.45418802139885617,-0.2123038995152651,-1.6284657095620347,-0.82432052558534796,1.3551153197274215,-0.31082885539045257,0.40159832329266232,-0.43372729820564426,0.48010953959479663,-1.4565638317483629,-0.74588152252494389,-1.377582370242596,-0.56445182805908323,-1.5934490729935962,-0.67076143461114524,-0.24887758356221215,-1.424918378815957,0.68468855084217539,0.74591185222983536,0.12043803574382644,-0.93663019815089721,0.020325869954995454,0.088721656800337917,-0.60784568315894094,0.090081875218190124,-0.16987695258559352,0.45652269665869094,-0.86738472616979112,-0.19091507063672408,-0.34905119142589069,1.9875657692850008,1.3949189928545489,0.84573993626277733,1.3124599460949715,0.81384384129803322,1.0078386780062722,-1.2270394867189403,-1.818091076496531,-0.84167141083850339,0.70288335047427786,-0.53585606276583886,-0.89585449717084542,-1.2094789562289487,-0.89244653917688188,-0.74993469604077356,-0.89525698523200925,-0.17056751634025827,-0.46856128263307784,-0.72520767123462326,1.9995577275849863,1.1723160604076446,-0.54903671695764977,0.94905704177328643,-0.038031711081898754,0.086820538901039579,0.22781033671253453,0.45360933884199134,-0.021379900367192454,0.031574806812186926,0.34438946270562926,-0.65184582129945756,0.53867921631363735,0.492901633030154,0.76840310211726703,-0.66292772959595769,1.1661385210198512,0.84268855895710482,-0.11349313087471946,0.27962880282521857,0.072859612940727472,-0.38204045733365161,-1.3447085717409164,-0.56138251301666364,-0.10831398545431944,-0.82776505702879244,-0.38195599705793931,-0.97198816121914544,-1.3478703020931684,0.1824665980441601,0.348343505623257,-0.94413873206747989,-0.092474947122474088,-0.94397058632575515,0.52482270805409381,-2.5449214725479163,-0.10885725922294283,0.043359338677731007,0.42952324185425977,-1.1266698398919563,0.046898598350672241,-1.3085224403578666,0.44745071549899723,-1.0318091354311676,-0.16807561663482326,-2.8148846951031805,1.0319049300440699,-0.5734107011436318,-2.4574405091188245,-1.0093986624684899,0.73525248169288271,-1.1679729474873102,-0.6685958276857763,-0.075941568875748572,1.3230253530015006,-0.63479485603741903,-0.20701705867294976,-0.1864451450037479,1.0207840506389219,-1.0995020188654305,0.89809530341682375,1.5837343941464501,-1.1163625336260192,1.364146830666354,1.2914020624327529,0.14066416349414612,1.1774353785562317,-0.30585062091202808,0.13931518208081317,-2.0725418988577209,1.4401793838896841,0.35560400442736106,0.099786400790624966,0.5893785457240116,-1.2229532684346933,-0.1065297409593252,-1.0567844708650993,0.087478862405389823,0.97131817597752312,-0.043134299239547098,-1.1636380901074641,0.065414907042979947,-0.33355099294035895,-0.84368109228119115,0.61993180424780425,0.78503054060355448,-0.46983953209018009,-0.066063198836439574,-0.15107649365793482,0.0028390390599466646,-0.73302790884959101,-0.81908097326435458,0.22093258778249136,0.27085221436179996,0.76791182346988873,-0.73119942002187632,0.034077179014252966,-1.2597706126796899,0.82041004936548734,0.71966108696528552,1.9255460186725275,-0.64955602556829595,-1.2404305613603011,-0.15772489149787677,0.8671593304318681,0.027182537577526825,0.7655505335519136,0.1853253229045228,0.75099877620342181,-1.3978836888038095,0.15982724004386309,1.2486844323591699,0.37075286058861939,0.62978586392154157,-0.50716804551115069,-1.0846074785350308,1.3444740097799173,0.38390766617367822,1.0721843526624026,-1.9366316752935038,0.48239754506833626,-1.057828792283098,-0.51177935997987722,0.59191090683763559,-0.16528179016004749,-0.24537801542459844,-1.9922708915233671,-0.17098908904812446,-1.6805321215785254,0.59252963209328058,1.1334470253830882,0.027557986271240478,1.1793971719248233,1.511310570643452,0.80372034717970675,0.030610847141537247,-0.12625221391788988,0.2979521381853294,1.4219084378701505,0.54858201917938265,1.74593646017118,0.90641818619939296,0.054526161586557001,1.6442769934799475,0.17343784669636333,-1.0722276765870953,0.57368431137125653,-0.19779671433068249,-1.1027673000588383,-0.49746621473436448,-0.036508030533097327,-0.15693969615011263,-0.75949825049760511,2.451509123326407,-0.68664959511097146,1.0651803350630595,1.352556991060293,0.068663823797532234,0.61714996281871304,-0.92495408256507117,-0.19096476509158275,-1.0875565109965657,0.14132419669277513,-0.070724754258864875,-0.0035551299677176406,0.31475583554073072,0.64233801811295665,-0.107956906189614,0.52098469855523,0.81344652673869411,-0.30350869261645685
0.24811105156475924,-0.84754439730893449,0.6062963013492394,0.43853474658506109,-0.80026173353423458,0.064447373914721232,-0.40158340003646958,2.8371096956151236,0.61425067606753814,0.7442885331007737,-0.35939943807538499,0.41120514025560201,1.0302180501179805,-0.78499958482184296,-0.22860920020430212,0.68945764099539264,1.0948527434361313,-0.56618877817024682,-0.23759817675471756,-0.35798248685257067,0.33765011140685752,0.88904598797846868,-1.611319784112597,1.52344926152997,0.049645689714993925,0.8887482091055654,-0.56273624620051454,-0.42242007650175734,0.45687845986681913,0.56003234713392436,-2.0866715536505009,-0.6535642947200152,0.49909100925950317,-0.00015482595496161245,-0.80056743511023665,0.85690983646620267,0.43059144983198311,-0.78117291763144781,0.31239743119257585,1.1197035257791053,-1.8730666247155989,1.5350705634851511,-1.409322767069042,1.7486005489257288,1.438938687529326,0.23518560807028221,-0.15405854709913966,-0.44781321471735169,1.038666947191321,-0.093050249222033907,-2.1908818764853422,-1.5477926252518961,0.017334979996429734,0.241191847262231,1.087057691694888,-0.60235832680693757,1.1525861037731542,-1.6196135066942077,1.2844977113121663,-1.0788249018008487,-0.34967693248030979,-0.49073375892919169,-0.74279230928735329,0.10992078293632264,-1.5258828665348774,-0.17888210490588033,0.15677877674718982,-1.0307266096226118,-0.34732370017058928,-0.72657072899039443,-0.26536092025818919,0.14969803363084622,-0.77046637192341694,0.78514885186217886,-0.64805161123608968,0.57504293285319086,-0.51810698532515853,-0.35815274440153044,-1.0036023372598231,-0.57360535787533085,0.28984570835888934,0.94054199583085629,0.40877590223989912,1.1427096506174166,0.6804428197425203,0.27673021387963476,0.52638173022339563,-1.0035773481716799,1.522236621892433,-0.86383851973355841,0.74968125302858724,-0.95295531682599877,1.8458235050114409,-1.2295959267920615,-0.90733404125985295,-0.064968971906531614,1.4211011257810802,-0.83852958580645487,0.76156207888392158,1.8146402247206019,-0.22367606000992227,1.4183280842352817,-0.51225694104379105,0.61873912905622874,-0.73716053809234328,-0.91853785072799221,-0.37402836080255469,1.8714658146527474,1.2559478364212462,0.30242283221688893,0.45770018232252119,0.88275491643839088,-0.080230333650425409,0.52420671610876124,-0.65866914461659165,-0.36310076001406316,-0.5604825045187819,-0.43732755635224796,-0.74372658345986542,1.4319527436857082,1.1845786217528482,-0.30080756775837642,-1.2644417586477081,0.52033275407415491,2.4221444705518822,-0.86809760538937775,-0.66677984979876637,1.1637269311820015,-0.37723496430447834,-0.12841180983722969,-0.4111866698024863,-0.95418014266794282,1.3963430874415601,0.86600334874363516,-1.5080350255315289,-0.66788523431857905,-0.50764603246643325,-1.5857301487822772,-2.3226474718675636,-0.68270367911389485,-1.2435711680155359,0.24862723660133157,1.5313080430814607,0.36138641876066718,1.5002674730236645,-0.21526739670865805,0.61368668765183054,0.083215824098409566,-0.49049364533953688,-0.77118188175230085,-0.44406817715285762,-0.52557242141834815,1.3714142079569993,-0.99321505301295931,-0.0054017988302725532,0.68215303040290232,0.28421308705039272,1.6074945161974075,0.38816395908660745,-0.88008693896134582,-0.71186746157910774,-0.33721045210220096,0.27816942484073426,-0.48309511087106005,-0.73282508938052293,0.54399095412592835,-0.35785373303745577,-0.57739323153439304,1.9996353559504125,0.38835026000531792,-0.040519487690751775,-0.98976644029056904,0.14146222778414524,-1.4891489080019706,-2.9692069087561217,0.62235370112060329,-1.7529696376836064,-0.71591024217927601,0.66369742379510377,-0.39160372284483191,0.52946213898953576,0.38570038204052343,0.28650943525313977,0.46290523323301708,0.23232874422955846,2.0937821441945643,-1.362989112746638,-0.75534208112663648,0.60239562355931975,-0.35041354682208858,2.2359164491200825,1.086072698530536,1.5069877734910293,-2.0048854214660001,-0.95108374625842229,-1.3481169870129903,0.83595450898649404,-0.54948946335575899,-0.29775936357910315,-0.2000462238255343,1.0566784922592132,-0.18589319171048058,0.46380017529585599,0.12823542223446391,-0.21621413822523122,-0.99926912161243053,0.12390710955917317,0.44760290087944565,-0.13828057013659942,-2.2494808369514532,-0.93026573044193028,0.52541345292118213,0.20009545615760338,0.28528449527579119,-0.96221454430617326,0.285547598139336,-1.4205219313359894,-1.5631695954410572,0.75430322252820781,0.35831340017211311,-0.62616778109287041,0.79499052050762398,0.37377165003730511,-0.79077361418996683,-0.7486303495410519,0.19596710946553031,-0.18146693381720475,-0.20843904815408845,-0.60020373963344698,2.0300931829320525,0.05787301962948347,0.92767349286426448,-0.77365394678699184,-0.12170676278755749,-1.009985827947234,1.434478626643898,0.64030166995172333,-0.41673975421979526,-0.079757805455283881,1.9690577529909223,-1.7702661778533291,0.31169985158284491,0.1714479732918639,-1.0121635827464679,0.68800741446262825,0.33516942338614131,1.7608517459546289,-1.9616100586435898,0.83648438295600025,-0.4315081319343172,0.22857539699735932,0.95765189949590668,1.0189393103576729,-0.039427866780410652,0.10545511492430232,-0.51003532524465434,1.7635895054265129,-0.77046328283695686,0.092178085925596315,-1.2054053485803411,0.30788071606774053,2.2128612949135413,-0.85335544557149257,-0.19767033922929086,-1.8529570047383299,1.7817461956835783,-1.8041773300634849,-0.83937879393284676,-0.44448638174800026,-1.3514452760271758,-1.5743872300993684,-0.78191263832592972,-1.4219551647677307,-1.0687684820893719,-0.48638616927975448,-1.6506436814095129,-0.88682195137719633,-0.76039730855541388,1.7270580516277259,-0.8494681094927834,-1.7530033305203505,-0.28745921421421639,-0.40174469037341998,-0.65107754745333557,0.26752322010127877,0.84897745764001509,-0.42555965510804666,2.2582862612870396,0.10355752554053314,0.49210700367089383,0.60447115759584247,-0.21860895889742243,2.5932515671401983,-1.2277136379472795,-1.7872317697362283,-0.30371301973296772,-0.61320349287081255,0.39011168837308918,1.9244801686052877,0.5122635262312738,0.49185250173294331,-0.17118190558817439,0.62300334342598751,-1.0642448469857086,-0.43329758930308143,-2.8564212177511834,0.49279470110236478,-0.31331289362052334,0.094205276202184246,-0.61307007681225523,-0.88758518511909823,-0.60354182364534414,-0.47039858206188168,-0.00099072967402976178,0.12869163052376056,-0.33077537707439153,1.0048325200334278,0.37946412832598864,0.17062672038916055,-0.34666362928526884,1.3241249946399274,0.67089156950468432,0.7383371288697872,-1.5480774639546084,-0.13514939081488914,0.062009476687705428,0.030483092407640446,0.4432892719355731,0.45928879209018464,0.97874790092893782,-0.63943811300474784,-1.1978011927569854,1.0458528062363524,-1.896761229822328,1.6282974709323026,0.89029451200519494,0.52903531795748315,-0.6378841665088173,0.56995535082574877,0.38045938901394438,0.42691530107573811,-1.0241982924661257,-0.28785650568578247,0.0046244739479328178,-0.44101958035898559,0.7269119610347532,0.53045778556203926,-0.89675291071785712,1.0305265187949173,-0.18199190953326347,0.26008459366421133,-1.3618918701490323,-1.275562780014954,-1.2990526918611389,-0.5021390994726953,1.1626432425947568,1.5091513653153927,1.0875331563438,1.2663190003073128,-1.5438281467303638,1.0117500871298752,0.36666963801411834,-0.63460862998780476,0.45744420808000913,0.31340225715876907,-0.26366244094919333,-0.94632375299389337,0.29709844689048709,-0.42574893513502704,-0.40900777809880273,0.65876595931073612,-0.71157132884995133,-1.8396743532625621,1.5412046167580697,0.25638788124716017,-0.039940594044674434,-2.0568254121234903,-2.0119200708137326,-1.795252644395102,-1.1350442206997173,0.60392729056908112,-0.11542456355762799,-0.53996543430490107,-0.91675465511108956,-0.0099370858280512751,-0.41182594109214898,-1.0734847407645947,-0.37646542751668421,-0.745949855485185,-0.33916613724326122,0.53255479800837624,2.0302339786203962,-2.1631668553020611,-0.97772891715588184,0.11828537407648411,1.1825884082252935,-1.6720062227305488,1.2932302771770954,0.4186336877979065,0.93182718939020692,-0.77790637844950539,0.91625006802780329,-1.2347873178924795,-2.1428527206982508,-0.36140800780276844,0.0039702740129230248,-0.26167766513733554,0.41825031113070954,-0.28242357761293441,0.24438762324661609,-0.35150535294841856,1.4853794281202526,0.078626764628112938,-0.65557832895305268,-0.40916061501873063,-1.0227786237281151,-0.051386025006556944,0.47228597278201417,-1.1201686109875681,-1.2092890346729035,-0.63337392705148121,-0.68875168448508772,-0.47414965113203833,-0.70439560450171546,1.266644240355884,2.3815741766504686,-1.0281304009028569,1.4179491860448996,-0.47069777451901551,-0.037027072371582447,-1.6158361185378098,-2.4463590925005545,-0.24203468378306162,0.12703833087776539,-0.70663200901951695,-0.2879650223001573,1.187608479906304,-0.53956418288167762,-1.35827543796107,0.86420080126429133,0.74013869956636646,-0.62935109288299906,-1.685287267853838,-0.8298320775225676,1.0817455468982309,0.91434694029099384,-0.37380633806780511,-1.218479850617828,0.96513583765592037,0.98871693504731217,0.78345258238410076,0.73222184472628227,-0.22423671728216707,0.79015777927522579,-0.31260572571423767,1.7119775625007474,-3.1941116937172378,0.31879337591301976,0.33783207211360144,-0.45024691897345759,-0.36274252690383046,-0.65957876516579317,-1.0819578700550967,2.1435527356257507,-0.71550779797800468,0.36351332022254895,0.02413074170823468,-0.91585135673596296,0.94807600975624273,-0.2300722718733513,1.3115709961745186,0.46825636283922412,-0.633093276272646,1.052102681434107,-0.41114016765789008,-1.5523838824812428,-0.59424010795213655,-0.56807273327741392,0.1888295721052273,-1.0208550900624738,-1.2284758556034725,-0.072137531734663252,0.34887745468219789,1.1169001058502208,1.0665070673635155,0.32507161022782255,0.59695017827503605,0.24220068919273027,0.03574379619768546,0.4818900345195849,1.4803196389867117,-0.91022901439782422,-0.95638895335789897,0.36062350663975873,0.074704987917617274,-0.25996433221136872,-1.124853637932375,0.720909114908038,-0.35725751683501572,0.60271598205396737
1.5294756984576772,-0.72007207581127386,0.90610694602645148,-0.49350080443022115,0.40652241565672215,-0.5206822778605672,0.71477484183440054,-0.71582221962262949,0.51326421852163384,-0.058059814390214702,1.578951597727198,0.13119073030744785,0.20487729143238392,0.36176142000520384,0.098018930417936509,-1.5713976724201233,0.70835384279403257,1.5320420914398503,0.18107221071312674,1.1729603174757464,0.68014416989864868,-1.4472211410576881,0.45549486879142642,0.42389174523062784,-1.6271169584240501,0.76715428059604585,-0.9730055760717955,-0.41911458145389086,-0.96992438984842866,-1.989471010229878,-1.1565869566942697,-0.2822045119196514,0.98188490005063567,0.55289248701070204,-1.5220375362067691,-2.6543174527291136,-1.6462098645002923,-1.0547291947833168,0.81512781318860061,0.50484645747945811,1.1162320030800714,1.7770165204993362,0.73500911676947911,-1.3215762968021072,0.46671963926693466,-0.7373387758033586,1.4243645993324801,0.081198869474680871,-0.56475468062644196,-0.14125894621920543,-1.4757227247068327,0.90063308216783244,0.24176714936305249,1.3945931044895132,0.53166260488650352,0.74476350188135054,-0.85648058559831031,0.52092628915744732,0.44853252759009482,1.2593163584058407,-0.52992219041349164,-0.29983842820880108,1.9525959485469477,1.4566423894221505,-0.25343415676612074,-1.2809663601501262,-0.14880140919467622,2.5320667482066157,-1.4436489069666365,0.53354658359030371,1.1249008885578027,-1.0053889128684108,-1.1955916757079774,-0.53397492875321884,-0.15393420613085068,-0.16441078049397131,1.521460728780208,1.4737619736477228,0.43447882073390542,0.56574903523747744,2.0808372249662495,0.18491622840920702,1.3312722825739431,-1.0486672099720851,-0.12909523713198479,0.081638790579339426,-0.37863265583122574,-0.50661096644925396,-0.22271368690206986,0.6125537909826807,-0.76774846228345228,-1.0593557594675616,-0.34320717549218666,-1.2622068983342605,0.041679586283685392,-0.77894959372818073,-0.11059681598820877,0.54396586125826296,-0.55037528749239617,-0.22589277828080015,-1.4507338619569465,-0.62876981869105508,-1.5223926625147104,-0.22976922501058197,0.69485001719693662,0.14315255320236711,0.069246002623556249,-0.61521397779117615,0.095998312531919011,-0.060775016259415213,0.6099217461781794,-1.3559028590318043,0.70431883752650903,-1.9546326140824108,-1.9945736177392137,1.375131471507131,1.553127569020198,0.069707280876157782,-1.0246306130105269,1.4574779222431073,-0.45774419936382188,0.79972717808967186,0.61728491967138188,-0.34494487060486978,1.0877877677601517,0.64506036933467681,0.5443893491476256,-0.95021422576027492,1.622563067406471,0.79857679666482639,0.61977338952189254,0.062405882184587438,0.67502274676077323,0.45212974982749576,-0.08378153683827208,-1.055353455171981,-0.32492026086057563,-0.47635016330277163,-0.20019050163832178,1.3968498877543403,0.91787175182353797,-0.39988139246702248,-0.42915818871905997,0.36070030428285443,0.12764888688643833,2.7945040624906876,-0.9398127779337978,1.0190608042153204,1.0773230599412689,1.6210124200014324,-0.79233879721850342,0.118481834949206,-0.62609633435833101,0.43149158641937052,-0.47847909495549729,-0.9725095947603325,1.4612219343900958,-0.49938414595468616,-0.44550452316747485,-1.3653457833435505,0.048449205490635208,-1.5381437718138347,0.84911109701441445,-1.5556558109878025,0.266978644452884,0.36754693962344481,1.1749968239458775,-0.034756842553362713,-0.81203174594906025,-0.79146174894859389,0.71734330411127678,-0.16244559699896413,-0.10559031587919435,0.054185041914767779,0.56199623397346476,-0.023773479502988099,1.8060739907027263,-0.66826409940571296,0.11708865851230377,1.6329324338716451,1.6533511859255234,-0.83950309232239273,1.2525629281381683,-0.023395601244273471,0.51909042038525166,-1.1334256880630023,1.7084489306453663,-1.2678147466521641,0.61353150109554844,0.081756884891563422,0.0010460212624533109,1.8263624836742451,-0.83892832874673773,1.2635337409567013,0.71774636618877585,-0.81623038770166567,-1.4971028329128127,-1.2429939223216488,1.2560991695823647,2.4476053666967785,1.5630909841599678,-0.03353728853692118,-0.74239639701898441,-0.52698598289996335,0.83823349898488508,0.66681494670577268,-0.67318970434241954,-0.11723677896901305,-0.86152884309155386,0.12016328064467244,0.13348465670134244,1.7731723869420875,-0.51079461397181392,-0.42202280469446313,-0.69920328065698267,-1.1995444412800482,0.083737749668729114,-1.0438880712484266,0.9897881878200161,1.3339871361559008,-0.30154482843317215,-1.6106244498284488,1.6523827467772607,0.51815348873043188,2.0469384325724271,1.5001998438574449,-1.3067092661823658,-0.87038386064413908,-0.17956537495845945,-1.3657714277249104,-0.71050093680240844,-0.8967352038552604,-0.56966291661166912,-0.65017139986042638,-2.2107934142733683,0.58101233923686335,0.77505398707938877,0.979032529786379,0.36817296705875491,1.0367711659029553,1.3968602758731761,-0.60488579486287786,-0.78567708865769947,-0.55621840789983068,0.96180635743764931,-0.81634894179609285,0.96344592776422777,1.1264773720228101,-0.37753478320891254,-0.82782224191963927,-0.9498551739567227,-2.5413987195787113,-0.39348217466251328,-1.5284423967858822,0.31753160404514053,1.1698340339052389,1.4779743380838242,-1.1684729270972518,1.3754233301087717,-0.1787470026345592,0.53682821994163632,-0.42001456033398182,0.54872495084316186,-1.4334123758035735,2.2228060031611463,0.052151981760723859,0.17574364876905935,0.57977674050874028,0.94722097222543133,-2.1718860518710774,0.97892313446255186,1.0344887703824697,0.63421880394802421,1.7184053750242736,0.16122116685956003,1.1955715283629409,1.5197794518650811,-0.74736170251144751,2.4653740591731359,-0.1220284051601823,-0.65045993110831335,1.2495345163253486,1.0948686825019673,-0.32507799581102387,-0.61445861825090831,-0.31637680643945298,0.51349974178036806,-0.4766610735368762,-0.90942565597737257,0.37290652061441337,-1.0196332529801724,0.21725069554420864,-0.42975035833872077,-0.48756708148016592,1.7974552320448867,-0.23376732192717581,0.20727415320366427,0.55150592424327527,-1.6243205253159798,0.39251632060064306,-0.37319863043661833,0.30896330845701797,-0.67271431235772317,0.44333352689755867,-1.0241075120129004,-1.0670165069830966,0.089905081115766547,-0.72745942109251227,-0.075360834663080745,-1.0489623621220914,1.4782118850877037,1.614052604789955,-0.37920028037372772,-0.33811826718772975,-0.12389235230104692,-0.38698475022992324,0.98261937889429662,2.3749051998558386,0.39400926083873411,0.87757701185170256,-1.0210201648757331,0.32078989743754283,0.5009707215660586,1.557653900222836,-0.17800725832389105,-0.28908195768229666,-0.38026409471291817,-0.9492851519241633,-0.47433533760038754,1.4991190896864137,0.87148026608341889,-0.26272975955212413,-0.69618323549830319,0.66671517449756246,0.18671943298008301,0.71345626647177507,1.5806909904303645,-0.24275063728372392,2.3394465295913012,-0.19478221105346644,0.89813367810291311,-1.8949331355954591,0.96132162493721396,-0.78292409378958971,-0.77627819009448651,-0.50097726255723019,0.83616321106775604,1.6655121923270764,0.53772704094716883,1.3028750196523244,-1.0950503639851252,2.1588805508100468,-1.6086275105058885,0.25727965075446241,-0.59676804784642035,0.037363387102595923,-1.1884773680832907,-0.80816568842513059,1.5064454864779555,2.1515711540676152,-1.443847951269603,-0.95584597072578159,0.47918511877380021,0.082225771957496099,-1.7968707999555791,-1.1955966085077616,-1.1882775391443352,1.0854496179667741,1.2661552820184996,0.37952767022538686,-0.58649813018232877,-0.10949629732466012,0.73920985176751941,-0.26245404138741824,-0.072825351303729524,0.29066928748951787,-1.0702615727078948,-1.5951800454895271,-0.61893972317497292,1.5169646403593191,-0.28761428811611411,0.25113629550080485,-1.2879644382216924,-0.24414168161619915,1.9510480343377199,0.37087752792200762,-1.1785012023713712,-0.061250360148449673,0.35994051998219156,-0.14753445292618311,-0.60017532468449164,0.19717969071335972,-0.014822606680860675,1.8453453161366875,0.71551293708348396,-0.53233710337207985,-1.1879921636452573,-0.012708615093024591,-0.5613236960515291,1.0241265795570254,-0.091179409495088043,-0.81214583571285193,2.9623865085853014,0.48151447627517346,-0.6812355198978759,-0.43519666973864152,0.32439761573671383,-0.091794567192647156,-1.1758485858964463,-0.98707807878070142,0.98044161712539335,-1.5730869297461492,0.93736346495973877,2.5036386132205095,0.10208797887447803,-0.56397847795652478,-0.66433951308154482,0.56632624784050623,0.36096985143362498,0.052267993171949925,-0.060292536079521293,2.5147265822856766,0.4787411513195472,-0.35003406087072209,0.1214739268501176,0.81615517266779825,0.30813679971083707,0.086201034116206804,-1.5163712034640473,-0.60226368050585577,1.6209208131534216,-0.66682946282112099,-0.66735020004253154,-1.0362626601964526,-1.0310061061507692,1.5610046058433811,-1.8842578368306082,0.91999717324915409,0.89616392857900462,0.94857673104698903,0.50395422145393709,-0.46355153655147907,-2.3282227046709822,0.68213002896630714,-1.1855328847703275,-2.4418513847278147,0.65626459320080721,-0.81048845308636752,0.18247967696700451,-1.1404403328895896,0.94828339995790656,0.14825015791165624,0.93040438509372492,0.4273708430376883,0.094190286867853426,1.3922846699929183,-0.74308770591658191,1.6544563000947019,0.18157479983868033,0.28085010841453473,-1.1624764917983086,0.3461000354125382,0.14905491996221606,-1.463137323965364,0.26069667847013134,0.66333385602330186,0.58455189733699953,-0.13687513307697696,0.28012846792693136,0.72410114693654481,1.0207483824492081,0.3634455129313805,2.6023867666662821,0.13557049821730943,-1.3009170524788061,-2.7672319965860712,-0.59123762251954837,-0.96131614785266184,-0.56222462613021085,0.21030669924400364,2.1974337253815466,-0.17251762360176331,0.90986170107165021,0.91323346856664833,0.18003257932269504,-0.24184296463690458,-0.88882553680089205,-0.73402875646761812,-0.53710395599137628,-1.4202057192590689,-0.87319712837512209,0.36700647301025774,-0.96142020350078405,0.30211957638439713,0.8363237930947669,-0.4795473548045418,0.66464525792507978,-1.51110946654999,0.16858485801640502,-0.16665061197725362
2.8367906861529768,-0.92910620529667576,1.6826399209753935,-1.2644327585822697,-0.45574611391984698,0.71874962015704358,-0.054295709608535164,0.24631981430205779,-0.45956824557651643,0.39035872861216547,2.3399112348612472,-0.36265320019796177,-0.6042130794707985,-0.87381751540061647,-0.58648965423308796,-0.25834502890290773,0.3345117299371011,1.1703763755160139,1.0651963490598559,-0.089469354956881908,-1.966718019511783,0.22117237883648222,-0.040997811463826403,1.2276968436323756,0.0005561064800731864,-0.64687162332766812,-2.7194351896830247,-0.30236818017507483,0.50991688423248649,-0.39903892808597313,0.23765550977257843,-1.1192439171699948,0.12681945310053006,-1.177176458475637,-0.060561744464661164,0.19781203004098352,-0.12499752238351922,-0.84942373249163972,-0.23172523849676702,-0.18469520529509606,0.69432241490583613,-2.4562321940752994,-1.5383784580964057,0.2583451809782199,1.0108902306324867,0.44445115619526038,-0.23424157462205741,-0.11052230084253127,-0.29121467902492565,0.25627048148199749,-0.91086490889173055,0.8650896472168208,2.0479317657582272,-0.34136225552863442,-1.516586426863064,0.81845232773865573,1.5287754817566066,-0.45463911892854358,-1.7031782841690131,-1.2741569360931928,-2.6389397377618407,1.2281311063309759,1.1649717474991943,0.013805465960468105,0.73926595926191796,-0.26493721648648882,1.5229645186290159,-0.22045767866735463,0.83370847944227433,1.1171492701905656,-1.9726272550141679,-0.76804673028700421,0.33174990245337393,-0.77770037516285229,-1.5815221382371332,-1.2498597679443719,-0.42017521484677395,-0.87365078484691905,-0.19471646580676108,-0.088978714585380064,-0.49898771892732458,-1.5798624461340682,1.3988899901724134,-0.62014269810672684,-1.5418967864151958,1.3483060985565158,-1.7798934667435886,3.0062552057157408,1.4027643817321325,-0.40789705682374111,-0.76732904794764567,1.8430930578877993,-1.1669266893549641,1.3050850272740602,1.0602151859038147,0.54187379945324121,0.19403946771274555,0.56561272143374464,0.40955617528314925,0.44720688314416762,-1.8456655054209457,-0.2269743743252518,1.8188320587174935,1.1252331504489501,-0.62539900640767498,-0.58835244209964266,-1.3328367230170268,-0.044413185497795486,-0.29975591895728326,-0.34315410197524554,0.1919217722729219,0.78904971949316194,0.021045061615385958,-0.53187151902779328,1.4434368493416276,-0.36706647359118982,-0.099040105727359523,-1.406844809172302,-0.72901995755808158,1.1322078463691447,1.4923017382685482,-1.3808490473115336,-1.6298336144187358,1.4166043338566747,1.1322936109266746,0.67018513582980155,-0.44574734560589274,-1.0449965828042012,0.43329062721074141,-0.029435380010632894,-0.071673400142779994,1.6518812553489228,-0.58202029458274052,-1.8610941132038339,2.6330706056437334,0.96388499115223014,-0.49074759407552415,-0.91972092224629631,0.81581943288988901,-0.43234695893172664,0.40213270160222359,0.71391237797059437,-1.0413624675792272,-0.59642702953951199,1.5291679298176299,-0.053502338451144188,-0.72444254043028533,1.8710497415341993,-0.42088520280480279,0.76133540834592628,1.4382607579553186,-0.41348325297837124,1.6967153234040597,0.91779060656265166,0.7634500744431052,0.43626533013664798,0.2370024404334885,1.2110971634482213,1.5020470089915889,1.8661308400070975,1.1768874406029484,-1.3251216150245928,-2.2301188795666627,0.53366031680490855,-0.99439758148284962,0.13237869756261178,0.44988082309377769,0.89660353616930966,-1.1805364122646629,1.2624884672155221,-0.86474639406846365,2.1555432830039387,-0.36841546659617663,-1.2592122183644043,-1.0571703539479658,-0.013522946014863913,1.3211357401590826,1.1596823242583487,-0.73102934126303853,0.078180069744314837,0.87700193583311314,0.92117667202376829,-0.87733844788661008,-1.1298815466953778,-0.50889071036835321,-0.44139423187396104,-0.045610348927825395,0.29505170253325064,0.75260590932327842,-0.73240855837575747,-0.55113475906621878,1.4142156407205537,0.39702164015646091,0.87562306105826293,-0.92628332937991931,0.63557297579643501,0.31672650666437924,0.52999924501138573,-0.32973648574877973,-1.0991269197662716,0.10384355686110373,-0.52730416545704917,0.50204130757383658,-2.7114521845622024,0.19961234042759834,0.5697180694026226,0.19110845587982278,1.4282786157297434,0.71097541078926652,0.98631082776736101,-0.07196145650303043,0.35185549234555324,1.5766969968399012,-0.23127282890759546,-1.7589968010779953,-0.75580739719992784,-0.60365133003881699,0.4500013502670544,-0.40513632531436894,-0.10203443884554696,-0.85081471710118284,-1.4505725110711891,-0.10100031286219877,0.73976679000151302,0.21174826402904975,-0.84165155372606748,-0.32467360940256335,0.43880486086107606,-0.90656257636340476,-1.1161640981342174,0.18078129432998405,0.38073226970087126,0.54482440962551737,1.4491591852220247,2.1168150234739489,0.67714342148236806,-1.2672201663582907,-0.38883061984601575,0.3554289941905111,-2.1862700873886483,1.1647711488618913,0.50852271767524626,-0.69491611761848981,-0.62739712223493704,0.7481941846100495,-0.037659946964743486,-0.34882839207616906,-0.86732107778888967,-1.1389699660765722,0.76537994641635199,-0.39641949916350833,1.4461513430949953,1.0475028231176278,2.3634747714641686,1.3238985442839111,0.18537134568115285,1.5872567723271855,-1.4209456348031648,-1.105762554523801,-1.1664077920980089,0.39369322669996809,0.63544452628683401,-1.5269991036305501,0.29138610449797808,-1.5839835430638343,0.024381648955546013,-0.2002880237672065,0.25551837585650772,0.12702041588250781,-1.9006645267928779,-0.84633158417485699,-0.84844624054352102,-1.4624191000251374,-0.30819403551171676,-0.73008169160392289,-0.48756569180276882,0.73717015298275301,-0.86093166405231347,0.1753079478851445,0.73500738434195378,1.2265836930391691,2.1112384667714359,1.5069069880689008,-0.65367846801101692,-1.5417396993858847,1.1868830263154475,0.1715830188565852,-0.45857384895448167,0.31447579056653441,1.404719355114479,-1.7544359510535943,0.67351991683250312,-1.6790401481222317,1.5422153357774517,0.026930787748293019,-0.32427738856969657,1.0962668010756758,-1.7442032632854307,-0.82909914673520335,0.095552990861117834,0.24283772208126045,0.73272776566637221,-0.029745522238598346,-0.83759320234332479,0.25558225191830602,0.33656601184980744,0.36378754686885384,-1.5443564450554597,-0.41229286555491712,-1.8765825186104388,1.0071457717750709,-2.0319619805756859,0.07030593599765575,0.99801019555724202,0.099271025363162152,-0.28580543391678087,1.1917410331982341,-0.40618393400116665,0.067213891605775858,0.69898890761663923,0.57717278512880565,0.31786733097843717,-0.35968810513438015,1.1696271785908254,-1.4008640566917629,0.31916499799896297,-1.4882045994048623,-0.18692194218567898,2.4732205253052069,-2.1246500877273391,0.054004282167316821,-0.74124184385381753,1.4244275631794476,-0.65079117173377898,-0.57335735328901516,0.68855274152909818,-1.1076225401323274,-0.40762770004683208,0.55165157055219205,1.7254798204745121,-0.36732621444078234,-1.4582578234435017,1.9158638374481629,2.5013853292915358,-0.12819346359634656,0.25209542425991399,-1.2617505782397693,-0.69739142539081822,-0.43196934457924452,-0.27442897205089162,-1.1361609872075795,-0.17591821712063233,-0.020846663167427289,1.6055764011308367,-0.30890885359168341,-0.50965479196256092,-0.79281837057532178,0.088456902163862747,0.4618946777666621,0.44429210290458904,2.6142293302193456,-0.13367221153907125,1.5958178017172813,-0.40005607553869449,2.4211752206081179,-0.030433973796332003,0.96143826837189539,1.1201081616021398,-3.2317372319674154,0.7856644118041648,0.33607319849138062,-0.99405121498891857,0.92591717563817044,0.62773499446439429,1.7085877645135998,-0.41915383018888264,-0.55577207479336288,-0.031960605496013622,1.1614409651438948,0.60542134174653783,0.6146158872520886,-1.0617717870107395,0.8063864557443986,-2.943957503194556,-0.56596273327613633,2.7400319953334167,0.99030901514091796,0.41222035924142558,1.1674953187564665,-0.76466056023659901,-1.4106243413537038,0.1548926761113994,0.78192488380476888,0.2950964552520331,-0.46889088687451319,0.57093345507685322,1.1480171681344693,-0.035512593815007293,-0.78067234811351027,1.0223511429830576,-2.1568220528095301,-2.4055627981388499,0.35271416946509082,1.0260555155637636,-1.513386904531238,-0.11574873872653627,-1.8001081860987678,-1.138607972625941,-0.83323294334148057,0.38428385744811733,-0.057845840262165313,-1.6198714356455046,0.67950612895801343,2.5846812401005583,-0.29235162414821636,-0.020177211583687519,0.2164649825945926,0.97539168836424017,-1.3343736056689584,-0.94192673898574009,0.76251341326250799,0.095775526991648541,-0.4955931400627076,0.013690957020626079,0.13319643949534204,-0.43401216607182524,0.85818699217253203,0.55798581947603176,-0.084420938846722027,0.24282827423531445,-0.6381601197582194,2.71002302263524,-1.5108323282159495,-0.25405938982891946,-0.82071675471202776,0.20117687843990023,1.8969924245022725,0.42650341979400797,1.5400136307923646,-0.97124740425811851,-0.032457907252180347,-0.26767796294612656,-1.1403736383151901,0.12454877635580328,-0.33291749370147777,-0.66435953173933315,-0.27115238012515019,-0.037045696249346317,0.91904766087095968,0.1005850456133046,0.33745662665019788,-0.27604421764336184,0.24446260451685506,-0.57159934243114419,-2.2695316404064392,-0.87488503753788893,-0.90165024928599669,0.41664270856425112,-0.22366110892850394,0.076089039288125687,-0.8249018276729162,-0.61519379343772029,1.1344302490642981,0.15718359605594201,0.46048787527450724,0.20862763809572543,0.89237299180858443,-0.71238285745585017,0.60955063083810634,-0.35250651846177794,1.0207074813791692,-0.96495837055954847,0.54414280202397391,0.090785282125207797,1.0985625335531097,-0.63517917510567923,-1.2030109554637485,0.59380345509359977,1.7357131357759696,-0.85900556641745895,-0.8029703540661759,-1.1145104507524717,0.25775987710047754,1.3158011413425286,-0.93488786950029501,0.67251930898976764,-0.19694266951605779,-0.31872311060514646,0.2593205687677152,-0.44734897404804458,0.24027301196973266,0.41558357323708511,-1.4138949521112971,-0.050028923389916914,-0.023783363488249894,0.88141599651941627,0.88728360716341703,-0.2186472091538863,-0.51408063616330957,-1.1746816266585314
-0.30319989713646028,0.24476803192425609,0.43672425112967284,-0.047980262155928564,-1.1509113912382003,0.69982173200360798,0.18195124799952336,-1.687261112458377,-0.056896127219369617,0.44678703744248366,-1.2164722866085604,0.12892576941830078,0.53162293442296971,-1.4558862886059285,-1.2613613399225643,1.9080312357070963,0.72025457233620516,-0.88596981407496711,0.52375391239366842,1.0699569827110675,2.1455613817893586,-0.3462059406522649,-0.48444047455454947,0.58238467142428652,0.27901849878405705,0.74354119932662233,-2.0126057814477956,-0.86346443334454615,1.1365425202062078,0.025088687110178875,1.3494865295272558,-0.6320704308536369,0.10270789547673362,2.2999481356224889,-1.142568841554036,-1.1586696318387937,-0.29756423385070863,-0.58281250114682348,-0.06137085574150844,-1.2390059764186077,-1.1165168423372445,-0.6550959898206643,-1.2148429081138068,2.5270445013145255,0.38592906593324572,1.883301147369552,-0.21809465397702893,1.7048540781472823,0.17510352735607534,2.5986135071222702,-1.0160845132105631,-0.34519897878276262,-0.63735802375758344,-0.4858133487396874,-1.1888803829064842,-0.47018267186254797,-1.2045246195547028,0.53487539631030023,-0.4094819433919839,1.0071082359676993,-0.34178789240847601,0.50086194851358812,0.97941371081242645,0.39885671303959325,1.3510459742431533,-0.24929136257893325,0.62008013340492851,0.90402024555910221,-0.45075745604369999,-0.75476179184268033,0.98316336931508808,1.3946252333451414,-0.35816497482113158,-0.58652227217568176,-0.059261841076546251,-0.80752122617571209,0.052312786762236503,-1.2000432996609123,0.24369857689855037,-0.090254466717048759,0.23565095370171465,0.84606999308574571,1.977322505683355,-0.26050093382289224,1.0627795124902293,1.0484966817381263,1.5071361459440071,-0.76779420091399897,-0.97676652260084618,0.73660209297458223,0.48946394069562665,0.749395389660796,1.8663820464900951,-0.35621432096816774,-0.77607847180934231,-1.5197367920978868,-0.16214478938544838,0.76903714715083638,-0.20593979407974844,-0.1055555976463063,-0.14179930230156701,2.3934024357574795,-0.11320035185560989,0.18000217893689924,-0.19426567220887131,0.16151330414254797,0.55918022784418064,0.90494023297444415,0.036593028175592707,0.027574455410265066,-1.6659451768835065,-2.3649797757534241,-0.96334106160073762,1.6175458688191138,-1.6838384562927757,-0.98404532753100871,-0.97074546567670261,0.99466153655238188,-0.89411609179418461,1.8992387351793512,1.0254930837160052,0.045847343718972616,1.6165636650610462,0.40276294526030709,-0.48800381406159754,-0.15352444274625832,0.51491551167923499,-0.2522152925486339,0.60503390913859323,0.032754151868731457,1.4251475108590581,0.66470659206388616,1.2288289575091806,0.44770517999322751,-1.6712981233576425,-0.81589945062089209,-0.27151836067928303,-0.47169222169906161,-0.60834424815926957,-3.0045570029782853,0.98402523774066897,0.39716600355565862,-2.2884078368913734,-0.19476805769540226,-0.68399638667295282,1.4633563398950697,-0.95058479764381176,-1.0407086696041421,-0.78670367841980482,1.5281830560387772,-1.4912232790952777,-1.4900479520267582,-1.6516757012306884,-0.24605013848307414,0.62206929996394855,0.87023806872317555,-1.3765103728542267,-1.7212098645760188,-1.3654033430612915,0.16233442367411782,0.22700307351482996,-2.011386522319409,-0.20112853046738097,0.64259105883149448,-0.89870102267069252,-0.49969946572982188,1.0569427800660278,0.34226402128787442,1.0242010836557762,-0.096681381028018612,1.147221415218431,0.36868840939291525,0.11619530502291693,0.88066880902593514,1.6809371696770983,0.6293907067707083,-1.2676326272214393,-1.2193893714861199,-0.46830415134976994,0.96518307964354244,0.32766057903719648,0.70586553593708989,-1.345492792713358,0.82459812353377393,-0.86542813267645002,0.45659069284010556,-0.64093677512032121,-1.3885620023318588,1.6585556703309237,1.8414390949838899,1.3512448901594185,0.36754485924887198,-1.3405721553039132,0.24275822078467998,1.5545693140836594,-0.83558674607364458,-2.0687403146666328,0.18341103492027455,0.11270794016827927,0.1170277318478129,1.5039469092328446,0.73088803980858852,-0.33257899208226782,-1.9753036227196838,-0.20216286776138509,1.4103010972849939,0.78364648115804159,0.4850369088583158,0.16691009436427351,1.0039769798086311,-0.73335020981641941,0.71309843638626569,0.91674392253289949,-2.2804554273181821,0.13506104235689534,1.5553275961406874,-1.3604846009660823,-0.55304195669749057,-0.99033308595398684,-0.1380140270052243,0.47131764643719304,0.25536023451633705,-2.6495635294538209,1.0351573221782084,-0.3037698886638745,-1.0934189601701378,0.87323547010579317,-0.5692604464966351,-0.25270940565744621,0.22466800650948437,-0.14765048227925456,-0.064843267018334053,-0.080094102799273828,0.56135429403370196,-1.43960464011948,-0.57006301029221673,-1.1484100588183359,0.32972868975168584,-0.98136277319687215,-2.4946414062023194,1.30430168327431,-0.1164723396842382,1.0160404771889686,-1.1573845183323541,-1.7130859246194523,-0.37653744454425236,0.2039332157775407,-0.89655149107239618,-0.29157722406889575,0.14470955851427852,2.4141347451835977,-1.1628871379811792,-0.089168441231914947,-0.21625492379563055,1.0314012374716792,-1.2940711178266706,0.27554048989361379,0.99766235920823343,-0.16530362450599653,1.2664683329285427,-0.49909169996563385,-1.2485088505558266,1.7501453869315913,-1.6665089892838643,-0.2409665873186991,2.761493822968049,1.5950062367395885,-0.89373716554846439,0.17842239717131231,0.69586350237321348,-0.10608370260165251,0.33991832114390086,-0.24874504452313778,1.3352476984463642,-0.06100132314902202,-1.6123871599478805,0.60868795970502831,1.3509003166194902,-0.39751481428280888,0.67929447388652597,0.93149205349138253,0.10495372457145556,0.56762631237055661,1.1226443770090206,0.50360544551831532,-0.84115772053488913,0.371821417217088,-1.0119787960189763,1.7320135879159864,-0.71729839543101048,-0.10013383632521515,-0.72910310455768157,-0.24756096259195662,-0.65166595152372353,-0.73362881508511368,-1.0343856469308106,-0.71806931622780057,0.53762496583890607,-0.86706040529688222,-0.57170285171917834,0.49492239066197641,0.86099232680213034,0.3565895493015977,0.93340470781211804,-1.1587013213458055,-1.1279674724347724,1.1603718013388937,-2.2695669987360296,-0.096272609843833623,-0.77368493635784652,-0.040807288819848471,1.3226862291745247,0.78542162616543609,0.81369674653168966,-1.2321651329301495,0.46583797049885978,0.83013370098559758,0.93981676933812319,-0.22842547623469997,-0.96627144006089327,-0.43733393623074457,-0.44462230810641468,-0.22680029030753898,1.1470445870367691,-2.6276547311472038,0.75359903125721905,-2.7019024791517068,0.40725051601614004,-0.34611453109584961,1.9046575677141164,-0.74113468773951496,1.2950519865290484,-0.072894510538362906,0.45549570954243807,-1.6342005454312423,0.92670813222368331,-1.2099187119473096,0.96333115137209491,0.39299632203224416,-1.2071967444317384,-0.92852302857497526,-0.10410123639719121,-0.34217754140687451,0.66782547337126597,-1.1099177672069345,-0.62931282468514493,2.2159343981665915,1.1024355483144181,0.94316589909703863,0.14419704073021294,-0.22523986032559271,1.0838815401386541,0.5501541219079451,0.65349463651674367,-0.60541295653501304,1.8600414275140578,-0.10009118457169006,0.21329699634244081,-1.3629482619448623,-0.27544655340659807,-1.1645695133304157,0.70547249425991476,0.39842037857486873,-0.76509300148992609,-0.3309011371672208,0.053282004648422657,-1.1606388685515121,-0.54437597969628282,0.5335447165810081,0.75841669287096547,0.21113021080072289,-2.391344202845791,-1.1188097967677268,0.70864219509711834,-0.13061763603360052,-0.50935217004743583,-2.3817439548830475,2.201859369320224,-0.94077836316960062,-1.3486036127932213,0.16119477049651326,0.94603395721676209,0.10405794235848598,0.11375509974580791,1.3643706319474762,-0.67846572812803674,2.7381342271898603,-0.95992008154548203,0.24591215551338144,-0.33811535061645409,-0.75844311668187669,-1.3577494513228996,1.174371166537324,0.3165130289836674,-0.98537388353234812,-0.21329885692522771,-0.55488107074886628,-0.53223546283275125,-0.34978538541905763,1.5008637741428863,1.1321602212859816,-1.3352667890476513,-0.42647412789210742,0.24056836928082923,-0.79055197015453305,-1.1138320090522016,-0.6629800054657301,-0.49048943296649733,-0.36499118987765927,2.694524697206826,0.009946133066095526,0.15430229282781943,-1.245080738221729,-1.0761703802109459,-1.0827502714430388,0.5830412722211431,-0.37269097443165333,0.86926723034579534,-0.73031152979638692,-1.2707886760045302,1.2252838153820422,1.2412794608994184,0.44902094110838237,-0.88529334443092988,-1.2895219374483786,0.36264841552524729,-0.59469436124837993,-1.2413466430175439,-0.88680022173777595,-0.90246028385213972,0.56500036193783454,-1.1280238654357757,0.50711621469330004,0.44799357154627661,0.28191456138300031,-1.9018743823854254,0.69966195388307295,1.4898724064856783,0.83024804043885159,0.97306758021937068,0.40984756928932087,0.27781607410937315,0.24831472949885838,1.2426379644549808,-1.3806800003674693,0.54038522370267117,-0.54563508350029843,0.36187777809389909,-1.0911626258212135,-0.78952229080250025,0.56195641006358799,-1.4070790651861957,2.1674898425364875,0.46698674074014246,-0.84123567171060942,-0.62062667853792053,0.092680499847203043,0.048253658519512341,0.64410504340700869,-0.48963434582514836,-0.304518105700959,-0.52085349270813874,1.4493133727110701,-0.3089244602034098,-1.2878956852707606,-0.41771969957331428,0.31600685213369234,-0.3898434871035702,0.78402584000927222,0.59811226677586982,-0.37937662111955123,1.640006379676513,-0.6035194133409999,0.50909215580683354,1.1791714042428529,-0.30481034888785191,-0.54269083314198552,-0.4301415730758581,-1.9185545273913609,1.7907413868509621,0.13379296234057825,0.40182040506938332,-0.65407496402883514,-0.028383417369255717,-0.42897385095863372,1.3951654670427456,-1.1955564422120302,-1.3548233695925358,0.7842264027176854,-3.1321992719816714,0.010565178349337326,1.1809443474853241,-0.28376419881253506,-0.26429882363202012,-0.73225102500287353,2.1294035164896288,0.43021004934956558,2.6395612298992961,-2.3007289448852974,0.36134654175265657
-1.797226697269841,-0.26708926681208367,0.6166344057802563,-0.13000726420766501,-0.93027773952196813,-0.14143103611185842,1.921568550759762,0.52295060277345806,0.046183220286422619,0.72271514811446469,1.3418260510637434,1.2500801586769323,-0.92269013723261983,-1.7068997616422039,-0.60428123190784733,-0.11317359637573725,-0.2065446623448049,-0.15358170689969267,0.66306306665167047,-0.51557199153458921,0.35558709235833474,0.062085228900200642,1.871240062146917,-0.052345013482145632,-2.3007960752531007,-1.5730141887231428,-1.3608925572758932,-1.2413805625799823,1.4362278845046208,1.1562150973066176,-0.44328394550617761,1.0284805635207495,-0.13731019281135595,1.8496846387948827,-0.64344715892475446,-0.33141360539360054,-0.66620618320118474,-0.22224478126102568,0.41234294697160334,-0.35835399413700064,-1.7810872052257494,-0.2150366190632084,1.5445803752827427,-0.89580129296335353,-0.49566992918813563,1.0286251244598088,-2.6955790513675817,0.64280333478120555,0.13684531865172136,0.082153561536862138,-0.90755779320762098,-0.049100700235892941,0.34245303163338703,0.2595294518094311,-0.69848220043092535,0.52139982302079635,0.22199680222733015,0.71620308364229324,-0.20942770341418446,0.37128061936113704,-1.9711894484313448,0.22987920588637567,-0.92809072365505696,0.66929764668724268,0.25519530347123243,-0.37668096028262454,-1.5664354978395545,1.3223235346566991,-0.58026390602229638,-0.25876926810775447,-1.4388652136441336,-0.36005101185689592,-0.98352544599552483,-0.23067130194251928,1.7808956341115996,-0.42894282267043288,1.2260851071800505,0.14166491209677559,-0.099408863502651018,1.3914932161508977,1.0924349342320872,0.1688282553273954,1.3935355411950836,-0.25263839142040356,-2.4466593501244724,-0.096488318239908361,-1.1891991460272369,-0.66886166846621131,1.6127281589116143,-0.7355322713482908,-0.80116402511914453,-0.46038316437646737,-0.84937492493568367,-0.16562993788623551,1.104873976784936,1.0547140570162592,1.2883776991290681,-1.4259711498037109,-1.7466251285013814,-1.1568482269180096,-0.24152722335034132,-1.5084535358429629,-0.44496462176673007,0.73321057342794338,-0.51180523674414335,-0.64892032364497854,0.41029882709051491,1.3997961863584005,0.1493149017924085,-0.96840638465788831,-1.749027624141575,-0.080493644690459179,0.57997683101608166,0.92429713673882152,-0.91205129278080921,-0.42869899778308224,0.550531628451704,-0.708642711496699,-0.34669095706311159,-0.43814123295453633,-0.76959048711117783,-1.1803831682157526,0.90332857350439877,1.0153795593735391,-0.83542880463047653,-0.75593592335402271,1.3694872637249476,-0.18449443297363896,-0.27018005351825569,1.2310938875538611,-1.0700814165282015,0.30376010253010127,0.10845094470972055,0.5884028921980381,0.036978587486973039,1.2576639465690729,0.58917947208625832,-1.3022381641098848,1.6697589825001815,-1.7169270376405865,-1.5181382184571273,0.36465208321878867,-1.960517569728639,-1.3373015145818647,-1.337284141950251,-0.47110954226878132,0.24496162354136022,0.43180153428258644,-0.28651909933644976,-0.027720284108417977,-0.43066057898108462,1.7320800145389443,0.085618047736796266,-0.64306436157150837,-2.2326137527677892,-0.59663240249925709,-0.16631087732443128,2.1330959705004755,0.22885005869778435,0.87702771976544569,1.010387152979586,2.3147302964421459,-0.51963391892039867,-0.97229515206941153,-0.97127410792246915,-0.74289700304792339,0.63985087400317397,-0.45306109414167206,0.4509741326803508,-1.0593507790645806,0.6411034222340688,0.9693592288527928,-0.86625506820238873,-1.8070795314778754,-1.492941937346453,0.2583102924158403,0.036517378801557372,-0.94786538761845451,0.12922791550622301,-0.40826894189173002,0.15348433895357469,1.2189050429432084,-1.493836492067556,0.15981998020704907,1.3209651345994868,2.6168390835300217,0.0025475291921075384,-0.10827303910326919,-2.3299514610122802,0.54126360546832919,-1.0123437047821036,0.88766480163257022,0.27647076437737877,-0.30006863286088725,-1.1781136524689479,-0.20007091213996506,-1.6396745637695305,-0.61393687972043831,0.91160909830940717,-0.3561750638557839,0.80663737458221629,0.54375379262179901,-0.30568616630473416,0.057065208205504599,-0.67970520681807423,0.6428568708735839,0.092134526945193321,0.58489284167018574,-0.31046176033174322,2.7486366027756541,0.85911064022631389,-1.0251354087285187,-0.78763824011074202,0.23035548946121742,-0.068469213263224193,-0.69421645021542266,1.5370113622366335,1.6144026066568793,0.79356833422204387,0.22377872326269393,-0.41679353910686295,1.0792508804921483,-2.3360013172457821,-0.46483927105963746,-0.96276730113569586,1.2805316407300467,-1.1514675712383853,0.85743058734903688,-0.57688989876794305,-0.66218839620161241,-0.3588792016705793,0.33551621749525534,-0.84931853328589213,-1.4722408692584976,0.42882261621590961,-0.24654830492631127,-0.8323794362675162,0.24202978632698377,0.57501388595274194,0.091957865297790278,0.24308177012448751,0.47088372707203902,1.1224932997815122,2.5328009911796947,-0.66960820566133106,-0.35123825532079195,-0.27226070280266296,-0.22442194513016808,-0.3441418584401944,0.37774653443184658,0.37949895312619142,0.038159791417083117,0.11340627022331973,-0.6869642867992054,-1.890002160028956,-0.64826723846914625,0.029328812345440977,3.1604680142899606,0.92752301932382408,0.17292433878452676,0.09096130545840142,-0.86234022961180734,0.57572342810489285,-1.9012462723476629,1.5184650485424194,-0.0014539919891452297,1.2649751147574417,-0.56672715764863657,-0.6144479867423045,-1.0573652147096393,0.027767534740677117,1.4457972687617913,-1.4732131782196998,0.79198253140185693,-0.63277671964398996,0.62614994044710948,-0.91449171511616911,0.026987291424708813,1.4269131000475883,-1.0999052018088848,1.4576887334541582,-0.61869528152743947,-0.22151790820555023,-0.33731387219675091,0.29787520372357168,-0.11231673376875659,-0.86148800249947066,-0.64366261824853033,-3.4262349416711873,-0.23654108463968535,1.7548493705142079,-0.68272161565275091,-0.19172172329668943,-0.2620377624718826,1.3202930943209521,-0.46744737399840808,-0.90717508773444056,2.320331276058758,-0.41840870082956366,-1.2490970584671774,-0.045723656421300551,-0.16793565037861075,0.36200381230884898,-0.55488629358982622,0.58662148230628408,-1.1397188300507823,-1.2780915558148243,-1.4844499148705674,1.0258651404244772,0.70826479552246502,-0.14194767165341854,-1.1075101340488946,-0.87282888566848871,-0.16793190993003465,0.34487862003999648,-0.8192197766655821,-1.6465314647860825,0.29100479090764242,-0.77378061815824639,0.70495643796897478,1.4708233630757883,-0.84753046483264782,-0.21188736240007097,1.0222285437743801,0.69655690182294083,-1.2502272506405758,-0.83344679593568194,1.2858187240725636,0.11208528642068377,-1.7303420862306507,-1.3344209940747245,-0.029513800144234336,-0.41306214516771178,-0.57328203621564044,-0.24712326204913856,-0.89080349977577211,-0.1735471629652118,-1.8052322878905522,0.89884884353243621,1.9255421414700662,0.097963417182812873,-1.7614709157507775,0.44525234531032787,-0.031355289065822162,-0.93044566034399556,-1.2372179371014218,0.22311813036102773,1.2212742165988018,0.78420699144880446,-0.082019853313524488,-0.26794967566218258,-1.301355728382011,0.33258903274458679,0.2217344220425525,-0.70952096139470777,-1.4018749016432068,-0.92534478897070693,0.2494862899853767,0.65937357344721781,-1.4357432256976732,-0.97321136310774459,-1.0771031413076901,0.25098119129027113,0.2707482413109315,0.90414930705229224,-0.8213790025780161,1.5992433774610531,0.39224893228197177,0.12083983843004714,0.80140061331148926,0.52621722419408534,-1.0782370551304132,0.90005760401651269,-0.92400606282225262,1.545392869521625,-1.0104492374556933,1.3141372372085121,-0.22122002052328457,0.9869112801323745,0.49848321420896546,-0.073964657534405037,0.53707133210208191,0.30116886838120777,0.94049461572584658,1.3264371391213075,0.077872374008858006,-0.37305823619732614,-0.15666061834675241,-0.22750134463373786,-1.4656939795441126,-0.24664057273914733,0.44137971497737177,-0.052630965190373198,-1.5454350347132368,-0.33566834735141826,-1.0432606962234046,0.48429624850982655,0.48456026375647976,0.13407397694934939,-0.93117048839382022,-1.424375334421633,0.76897169084017036,0.92902017537253878,0.462846828552675,1.5330296940824619,1.3533357771879733,-0.23126958702133207,0.29516487513617451,-0.025769972084436564,0.029270393597862879,2.9111209479399576,-1.6246743444472751,-1.1913373197122932,0.29990235542819321,-0.16946137830578276,0.44240614823049501,1.4206041302335859,-1.5620728051835278,1.3264882723814961,-0.99158512303091562,-1.6080195139890165,-0.36840851565076621,2.0464469798371314,-0.2545445515212143,0.55478324310884353,0.48659726150946009,-0.50071179783230491,-0.24279770749403887,-0.34188885153326948,1.0912455253726592,1.506929434210859,1.378204031135069,-0.025306528943536976,0.38727517029006969,-0.15053419301910903,0.19941679361456038,-0.14250269214116348,0.038676395018675459,-1.1336263115776415,-0.0061174802289633828,0.66948513604559279,-0.77522209869342107,-0.83503356741881407,0.59191920946497156,0.32465594127390729,1.7515101641717723,0.72197692520367607,0.20830442118132578,-0.85012672722390792,0.31169622181264789,-0.3217968176567742,1.024283434421188,0.32018164498165214,-0.8720308341454871,-0.12663519907980955,-1.6902210108318723,-0.22579073873709771,-0.81507534124328207,-2.935187127264665,0.063460612211016315,1.2525915686337092,0.016356577677713587,1.5898546718191271,-0.32165894915658727,-0.28976476098407983,2.1770796453356627,-0.64661381960480846,0.37051273248071431,0.37958035703629672,-1.246223053229234,-0.11610654726750294,-0.69242298707991434,-1.5687704839945646,1.2251637661754708,1.796357144333373,-1.481544126178393,-2.4569598404020567,-0.091437072699921226,-1.864788913673558,0.74192307018622328,-0.70459653556678359,-0.22030411653255427,-1.5538887520676146,-2.5744325871185647,-1.0530663064244392,-0.26055894483611292,0.31825443961320271,0.46156080444270037,1.0264897979074772,-0.84215372194648808,-0.70383989253268275,0.51179929702547244,0.45082893164650667,-1.0951496171484467,0.062448097764671799,0.089333046577034211,0.48554712678796252,0.6133764880724899,-0.3776091604063504,1.7050180606691003
0.27845232515847101,-0.67244756339958767,-0.069191068643940395,-0.76076821750446477,0.84631281470001918,-0.21483388017594043,-1.6219140513562711,-0.0015640581806137387,1.0886879753710916,0.36100096290608258,-0.035821700745685962,-0.96430731973745731,-1.0283274539264935,-0.57711545769141803,1.1795969432746638,-0.90323622459161945,0.45295372372940601,0.40000956821029576,-0.25294365580493822,-0.19348888190832197,-1.1577295138063148,0.097787447260572882,-1.8155779068840265,0.40838073961830701,0.5805615762147659,-0.28408386885266029,0.29438996745437307,0.51090767101328294,0.33159944747933873,-0.23764129628897271,2.0031255572033113,-0.84824997031516702,-0.81088954889898146,-1.1712572869140059,-0.28579549623397094,-0.093452692151383757,1.0760662067723465,-0.3986880103281577,-0.11861763204654792,0.0061533800612325815,-4.7236528889541196,0.6956690946208649,-0.60164515676999775,-0.20250074681684299,0.69280353710625575,-0.036661056662598716,-1.5464947527795898,0.087843645798177411,1.5249396340545416,-0.35672981237356127,-0.3036381845347938,1.0643716165838615,1.4302410887636536,1.8100779150360902,0.89414607594679696,-0.37271149956761146,0.58621586140287463,-1.0911968651823403,0.42820502861466475,3.4780307431875888,1.2611256044177186,-1.5514323382694726,0.96601087875761915,0.21395274644775045,0.76753212493635969,-2.0727487792583212,-0.10347266462621321,-0.30877826027813093,-0.056806445431783537,-1.0224731384101788,0.55909027892502128,-1.6535821888229074,-0.40524660274450863,0.033462840334068177,-1.3660675471791106,0.016680696577248594,1.2237489363152718,-1.4547557448093287,-0.46141019375886677,0.60454290321573512,-0.38042886077608706,-0.28493236794594773,-1.8861682076642092,-1.6304561712576029,-2.6311375855619046,-0.49585605590171578,1.7866082095648819,1.3228403707393404,-0.82522804809927131,-0.48770004586225935,0.57051078950641165,-2.4739276021659831,-0.0018789176894558504,2.1895944986334706,1.8077725832909612,-0.50659820100845643,-0.95442704085030394,0.39367703206680654,0.67886981636055721,0.14312338684535533,0.37446480651212177,-0.2981816729526463,0.55282579117557762,-0.060556745144658516,0.3605334250165792,1.0157389525236302,0.3849549870976316,0.21635832103146546,0.67705555412960039,-0.88624729763674426,-0.64962192196409874,0.52874512190186473,-0.52718184652071465,0.89378957984730456,0.44047583231504944,0.93279604014876039,-0.63045171345906126,-0.48702200677126994,-1.3073336655115579,1.9125831386743435,0.78658536378287269,-0.41542621147683817,0.77471238190521197,0.85327333090430912,1.7985500650019921,1.3744400052928218,0.0051130094040171886,1.3875440181896448,-0.73133716452403019,0.60608321637988793,1.441053822231527,1.3916917242256237,-0.0090366461212071352,0.361927759221368,0.97154640284569938,-1.8958795310180132,-1.3651688135735458,-0.87751048629640571,-0.50129745506277379,-0.86733714850475485,0.0045836566366378815,-0.16312863031260655,-1.4762039529342672,-2.1859293425867805,-0.097131976314779614,1.0377116891019795,1.8610402567715343,1.0990036473882892,-0.3355245392488046,-0.56874730201247781,0.43535470112553676,-2.1758264435836661,0.77035537195238935,0.92783116951961653,0.78668861350098807,-0.60501504513430926,-0.011171391636709277,1.4133545127523421,0.10722355799302015,0.5295643719165084,-1.3702441776711867,-0.45597141985956063,-1.3857494334671803,0.22744258075687337,1.8240792185872168,-1.2889448648572657,-0.18835049419442337,0.16701907070146196,-0.63688454635462166,0.2178709184984757,0.5441803094720683,-0.26985753219786385,-0.7497355025622009,1.5026428615110292,0.28648395445758368,-0.081427821838432765,-0.097221311432404353,-0.3415816887915103,-0.14862258400252681,0.64757997461110661,1.0401556598966946,1.38261478099393,-0.19021571204252541,0.70285072092451206,0.29675414841191716,-0.13651263710507536,0.77951347002462335,0.33089877188120964,1.4851026899885635,0.32544088473597255,0.02735956025397019,0.47749685180366153,-0.13470816808232611,-1.3537734026402573,-0.46534098408682029,-0.91358434366410057,-1.9086801363226664,-0.86395522268200464,-1.1314913318820585,-0.87576835171021494,-0.86295380489050066,0.98535412602216266,1.4438329579219198,-0.31991200178475526,-0.71057816345999358,-1.4116112280464432,0.83136796856428852,-0.6762386009797996,-0.69048349026777933,-0.62072691172700212,-0.83209955691043058,1.5988996239534148,1.2737613548798863,0.98365949944264031,-0.49905963436918366,-1.0184503507756162,0.74892303995106257,1.6318065137086302,-0.76689661977717671,-0.19744606143905963,-1.3695935786644169,-0.04322384526123027,0.69886190153334771,-0.1518774027673086,0.10946680748172734,-0.1089883101068293,0.42359872459855591,-0.058910991995581689,0.53356796160985731,-0.75682801289985357,0.75700616169417645,0.33600195513233494,1.0697681939408483,-1.6653895381165595,-0.37264314345955241,1.0507230888229699,0.59631994040743708,0.4751826087734462,1.5505105694310446,-2.7794201335802318,-1.2558349856681441,0.4649182633700738,-0.41253207367680828,-0.73167464463751497,-0.11105817362976067,-0.13091286241247951,0.48490696406318018,-1.2562357748890165,-1.0211646541205217,0.7961476004296878,1.2211880050716155,-0.016714422712172314,0.65174529625461464,-0.26515510957642691,0.20891155047791357,0.35406990400834426,-0.53805427575511811,0.1657864387297828,0.10361393773221304,-1.0693882802682579,0.097136961098119298,1.6454044785131345,-0.090917851200024727,-0.73606278057159114,0.61991888820943875,0.92067309011920451,1.1588563043187157,0.97365245144070089,-0.8106789018293783,-0.98542680259427384,-0.47701698298733225,-0.30995480558962701,0.079805370821699931,-0.29700653681050543,0.96771490978095864,-1.7163766937055598,1.9940999668184449,0.055435246281510989,1.7208333722701492,1.3975143819647613,-0.63035209539853532,0.25360743491892079,1.317971387784681,-1.29525477197058,0.48162734769029175,-1.2629763708047743,-0.67174845545633088,-0.047452788339893762,0.39577447447565728,0.16712535029841474,1.1592692672168321,0.61938851708177323,0.89606950659269735,0.40365769974182392,-0.58821151313673181,-0.6991903829425401,-1.3961160424940799,-0.25614428279065771,0.6159578556152534,-0.21383015492539892,-0.59805547105865653,-1.2358575768248754,-0.5650051049303334,-0.48051777256103312,0.99449239594307792,0.5246948205343277,-0.82176274070068378,0.27687477567564983,0.90491818863144702,-0.72447118944506661,0.037238655075530001,-1.4243341692789571,0.19522523711402617,-0.32125365987451365,2.0643448856731257,-0.94713544867451627,-1.6804098088522244,-0.4092742401874801,-2.0014960943335969,-1.1259783619852568,1.5010322933753539,1.7205670405508198,1.5350706170886279,-0.2917556812591241,-0.029267058934558537,0.85503512575085128,-0.12575158025307812,0.36968498762318625,-2.2442508523234284,-0.53704650095876494,0.28274957716877119,-0.96800444989819978,-0.10436868962229813,-3.4674980296202889,-0.87495174169407941,-0.46201792196070129,0.79844025475482749,1.4877387318582671,-1.9673754152890031,-1.2130460822881639,-2.3565899492631424,-0.95600273534132385,0.56901434559078623,0.63825849627436415,-2.0429806244375488,2.4010405988064476,0.12297040761771441,-0.93141097546675022,-0.10595642005917832,0.68516484402123212,-1.4575757050273628,-1.0044210788354946,-0.30565339330956992,-0.72228517356447952,-1.5822292078053768,-0.45301739781902362,0.18488163045096923,0.43584890684166383,-0.52976839388023678,0.47758736318734701,1.5389207276851105,1.4803023683161187,1.2822763468497285,-1.3430128715174148,-0.50582472637948805,0.78583925889980621,1.7520547099366497,0.36427496114445024,1.03974603924807,1.2382944871997525,-1.4468087091272077,0.28542783504453689,0.26466713936402447,-0.53259286538745587,-0.18193862537822431,0.41413774375519324,0.1672353561831483,1.5460853236809964,0.69565408687473373,-0.01238895772556777,0.39579728124976166,-0.2244073028264944,-0.2470759496471136,-0.58074138656963314,0.93964245072421593,0.98805473084254292,-2.3031825026444301,-0.12582444539711404,-1.8644868023083248,-0.77045843641423317,0.19781801846225924,0.25530388671424736,0.55583354926915562,0.26004089187276258,-0.96822392725341333,0.42363014683299544,-0.41128616611406554,0.3516912521596568,0.79296301836610683,1.1841493452880061,0.39617111887564582,0.35061608784404669,-0.67534560453374626,-0.36472205293853327,-0.38389828377010926,-0.46493176354874222,1.2079170075088264,-0.75609573286568121,-0.51354291903071159,-0.40555970114462153,-0.77701350591776286,0.2058929738728649,0.99612733398386955,-0.31193342799371376,1.5954124572427035,-1.0151646951267606,1.6586100505611256,0.9453071604053066,-1.2452138654489118,-0.53395145638966157,-0.21998115565546247,0.88720643872240634,-0.58022617143567679,0.92927995552407439,-0.092322625900646674,0.31311071134979707,1.7564858727884816,-1.196250867385021,-0.40667607481485063,-0.58653433054316595,-0.1970518778190371,1.061963279365316,-0.58131731773108275,0.48957874982074395,0.9102105662234814,-1.9151768739035215,-0.20442412433290669,-1.6938392873900365,-0.090872498750164371,-1.7142133594335227,-1.1145377335352196,-0.43705002049139258,0.2161606355345648,-1.1952207699163813,0.19005685790218238,0.11683356267111279,0.70469934695903103,-2.4632047701337556,0.048159822764970529,-1.0942490646629788,-0.01674633853318103,0.56521518621412969,0.96177289963789458,-0.062930517825793134,0.30821143942825147,1.0702784941749137,-0.058120851284670726,0.88928345847670975,-0.88625180582080065,0.36005249428831293,1.245991658785546,0.39213950897302002,-0.57230837427305858,0.65288003651367321,-0.38533119094334667,-0.37580510033476955,-1.5283128125936338,0.1362651128299508,0.11209842321226568,1.1485303644517764,-0.98469420396813934,0.78858024482285671,1.7269172340387209,-0.98782310023220343,-0.17485187470407046,0.92192127416276848,-0.18823287922666704,0.15988352026791092,0.17576541033227044,1.2594275580790897,0.4192720270225504,-1.9581259449548525,0.54590036289336341,0.44400646389762255,1.3169742738492978,1.6267332117647435,0.68606769091718978,-1.7095794298831051,0.71591489665202768,0.086000745446617136,0.16268936914432833,1.4046580489379452,1.4807340364994996,-1.5003519554681257,-0.29075690026779294,0.23935691517480981,1.818783272878068,-0.94837822937286542,0.23051966620792019,-2.1392947013701491
