0.16119931145253411,-0.20423162062240519,0.75680845897946625,0.12199555592547681,-1.8197154755513032,-1.2178907185228378,0.30904078967977044,0.65474193876502373,0.68749104886242396,-0.85233796872526446,0.65936197592474444,-0.49928410244535182,-2.2845229468869563,1.0505251216832932,-1.9560522015846851,-0.79842267958881996,-0.80626342087340397,0.93771670163099596,-0.25838471074451552,-0.56966174546978299,-0.62248306782099161,-0.05906997941362091,0.54646372268254939,1.3129430582468706,-0.12399701964271889,-0.94201207847313295,0.24114725286316896,1.2121178734627704,0.65826581957345331,-1.97430334153139,0.93679806402276,0.52787254325280297,-1.1241423311667731,-0.31608757182884861,0.0093486492146357091,-1.0663993811282637,-0.36010484173672314,0.64150321153124867,2.5268881005349781,0.53776334029878359,-0.21028901472613082,2.631664007289829,1.1090047249912105,0.1846586386380771,-0.42589473009066731,0.18257463371212709,1.0902869699825015,0.46579309915266703,2.141819209544789,1.8182364673245943,0.43542262338432458,-0.49877961049517805,0.54527039744359196,0.13892964235829749,-0.38700089371733765,-0.99022953432524652,-0.6126796463387123,0.12817666025118296,0.62730630798084719,0.59691658358629041,1.7368848832024439,-0.13216560786857937,-0.64104252473916623,-1.6985760673694037,-0.4566476652943976,1.8516191367655446,0.51069946566422819,0.84566990691374089,0.41076265713668936,1.0386892828632637,1.0412110840729194,0.15203151409501195,-0.027563072323161419,-0.94906385204616461,-1.5514667982565702,-1.8112712270654536,-0.099959564682071692,0.9524978594403043,-0.12492233096959197,0.27599878729094718,-0.64160144193543478,0.96711503986975011,-1.3630861739200779,-0.10974774479511668,0.57600417794341752,0.67615427064728761,0.49620544572541109,-1.5928088186049736,0.49585546429972854,1.9098085440387971,1.2976895582354113,-0.51980030044690761,0.34957754635638699,1.4884240538313886,-0.031200000612993106,-1.3552789638750598,-1.4308603159825544,-0.21504873101713595,0.62614908015578485,0.44116826141865173,1.7969874191044335,-0.80643170407737574,-0.35544510273281016,0.75996302734814092,0.24549275575053606,1.4434734752127114,-1.0865133190704481,0.46502379083478584,1.2002450649877043,0.40695445728274987,-1.4239550588083532,-0.020736898682740638,-0.29481122124596515,-0.94569035540552859,0.81745247846217195,0.073802338316005217,-0.10514322606077489,0.051791941272681295,2.5680190569412638,0.96670517383695787,0.40545521809133517,0.39210460506194572,0.99625223298917198,-0.36476448334103595,-0.83749332839046109,-0.13125646773818461,-0.37353636916748956,0.52406106328336621,-0.50064976431433494,-0.23972541681750029,-0.35822059064630452,-1.3393957960368734,0.82497698651221019,0.79351793006790583,-0.84575910718159364,-1.8460135676750915,0.066497624987046963,0.13181304484403375,-0.44112841192428248,-0.51757914347227307,1.4789833987041894,1.0769864571552001,-0.31754382653650942,-1.0392061685274583,0.085572567640013933,-0.78803188874264651,-0.43385697235742426,-1.5755036879754372,-0.28908969983652077,0.79351246175429146,-0.0049764773558094019,-0.61436694278360349,-0.65592437385356228,0.56284537888515429,-1.0672249828725533,-0.2607705389933192,0.79487760237204352,-0.9968061442350622,0.86417661445066762,-0.5150513525923851,1.5077978444212732,-1.1571349904116541,-0.56244805005415377,-1.2562938377390402,0.65197381211352023,0.32119778052936299,0.27668771360187727,0.53806953662213841,-0.50965946169535237,-0.24817106777837161,-1.8889621075718088,0.83361352191890314,2.4893034526458915,-0.73807066957578027,-0.38239627888233046,1.1899496492323112,-2.8669613898924942,-0.46741230678388229,-0.88896239440354163,1.0191318349608207,-2.1846538695249436,-0.64433362920728898,-0.93666781880525685,0.21106449634312671,0.045648346359526491,2.3896349099684127,-0.95324346592009079,0.88042147878044252,-0.18407862551917814,0.0082519834572121788,2.3022544345987788,0.44873084921283141,-0.76750420356181193,-1.2960203195203448,-1.1266180781645028,1.5981579472051601,-1.716209178611191,-0.36259333838145785,-0.74580064378339239,0.3796050708021142,-0.52895024786099565,0.050963389447115065,0.46485308901381456,0.33689748497704014,-0.89394487067643047,0.17249293184998873,-2.1951742067279678,0.8637752793887834,0.75964326184688458,0.045723280664775309,-0.33766172245643461,1.2997023436939581,-0.89585463180040914,0.8905269629439968,1.0350216369632157,0.49588069851039335,-0.044752781574491564,-0.18247230210412099,-1.0901820420507224,-0.41004189701192378,-0.17631183881289414,-1.2409678050665542,1.2731071102674099,-1.1707507934174528,-0.14267996852871093,1.0099157482149117,0.48099101804377081,-0.33973476989291573,0.60341291311689627,0.99644560876869992,-0.1850461051915544,0.18490711852879921,-0.058207907066841119,-0.44856661588370456,-0.15043503110571196,0.87623248469569537,0.75964266308045925,-0.34852497681861949,-0.15781450678275966,0.29688432924718139,1.5225181320766255,-0.073328376440479875,0.19247095678650777,-0.26508757797903892,1.6388972591491082,-1.1073622793795921,-2.4229901255963098,-0.20616847917293504,-0.30647932304298464,-0.16947092539342362,1.9177338195762894,0.62179321773072371,0.7371070430250849,0.34356442241456409,1.5384220137502223,1.0623863313576118,0.38298001620728062,-1.2639485861744173,-0.084479603547878396,1.019546215051218,-1.4362349837310653,2.7609031455777777,-2.2189135102368787,0.65177080285130395,0.853891426912882,-0.48674143338128462,-0.15702108459855094,0.7877030052266929,-1.0917261212916971,0.41079201257027703,-0.0081498019656110823,0.91558116516921662,0.31199058983585737,-2.6048348558533001,-0.42565652365272405,-0.071197364228766769,0.9027850383820446,0.28517888943180547,-0.64643587976716987,0.25997950168002854,0.18725757166017104,-1.5378551101089408,0.27283229674589016,-0.72614419732178093,0.58485543378244031,-0.25182756293899816,0.59911740718293993,1.7994130242034683,-1.165431831115046,2.173393316651488,0.92232825590640977,-0.10772310768017222,-0.33006892555376,-1.1899950998714575,-1.7879946436252614,-0.096079478887651684,-0.29201471927542849,-0.97876686394538148,-1.1116146223185557,-0.60900601634996743,-0.88469503054428433,0.18994849764167387,1.2415812684047811,0.55903697190098744,1.09387782398808,-0.047705517301798776,-0.24976978978194764,1.4277439512402457,1.191522776534282,0.07742742707193416,0.3755652404677437,-0.75598907578462549,-0.67550044607178816,0.19314488826563583,-0.95741569362538126,1.1639322024328624,-0.80696608731522557,0.53411163614667312,-0.27089782913174887,-1.3412271505857325,-0.039950325264689376,2.2766441172020402,1.0769676611498351,-0.028335326689466533,1.4734020754623629,-1.0626870486009317,-0.2425319837640959,-0.28049311592953463,-1.5401456728916212,-0.1754652059206262,1.7150968052599751,0.29837228088348877,0.52172505620690213,-1.6453766187369618,-0.31369397368208818,1.7487474082155703,-0.52836396531962149,0.12127078631850484,0.74347438490822471,0.52271238480360305,0.1985850088430266,0.86312752944396343,-0.048851301915492702,-1.1300950408890247,-0.078823869617895906,-0.068358317358298518,-0.5392647830206212,-1.1708555939470315,-0.18600270360486429,-0.26216860070157588,-0.075353350705726296,-0.83553419140939655,0.23975230621897295,-1.3870835263985524,-0.056979588707945297,0.90717087874360081,-0.56304897018740618,-2.2681755422951384,-0.7253421869113742,0.44020649601860096,1.3392211289893206,-1.873833011712225,-2.4160910639632212,-1.6677608577150278,0.23360602904041503,0.62977864991420873,0.098793230719681061,0.094672760108556131,0.76153060972123654,0.1744779046560376,1.4032109709157008,-1.7838949983408265,0.41138595993879234,-1.4046925777078305,0.021039070348034952,-1.3734951814477498,1.5129168277356584,0.32991838460816469,-0.54674034816206429,-0.038967694949159949,0.35518143021224918,0.81539553943269083,-0.6014724457029208,0.1326834122390666,0.079237210024370341,0.014473367464565434,1.5367821022595782,-1.1612514067536008,-0.13696201040321135,-2.7558152856026026,-1.253686821320684,0.70970662295824016,1.3073612120010527,0.91411119516707184,0.8395068223289941,0.71204375289564414,-0.73726557781664603,0.2137248330762147,-0.77201558693023453,-1.5546128105029797,-0.84179826400903102,-2.0857143210501912,-2.6655433531846957,-0.50707367071470033,-0.22877217928289489,1.2953842942838867,-1.9457817198722454,0.53799745074488592,-1.6228248600237967,0.2945382652371008,-0.31487736794508275,-2.0177045679915637,-0.32198268115396078,1.1509759799569004,0.27231086656233111,0.30839121018919718,-0.58362092682896349,-0.69987970008488376,-1.6580104082385432,0.77554063656246952,-0.56007385906741347,-0.096318233999733133,0.75071004652935991,-0.92745610472066253,0.49259654376613321,-0.62619566788377246,-0.047152948901068713,-0.32992118247039809,0.12890382533596823,0.019615209259967709,0.8442233450720863,-1.3021900291538975,-0.054198594288235466,-0.078060135359008978,2.75017768969433,0.70230417411018609,-0.89179950641739592,0.63985844044542206,1.3482429386852948,-0.89151520270843576,2.0179314523160028,0.72284723088594094,0.38136662493253526,-1.2241927569692952,0.0029662678941944085,-0.5483721501185177,0.31927036431478983,-0.30930295869145191,1.6970556053704624,0.65025386588562262,-0.98933582476376147,-1.1742795166156643,-0.31456331225852485,-0.97679260143907753,0.21568574142698169,0.37151642492039821,-0.57607102723907799,-0.13689206987092101,-1.4568792551919247,-1.8080202806899772,-1.0441311106080546,0.64462077633433501,1.2273667479928023,0.82771626383875285,0.94814634559655098,0.31919148018146193,2.1046707461626042,0.07090197927431692,-0.24949338393483755,0.92081298151795254,-1.4873222549991121,-1.498784700755321,-1.6877089366666362,-0.96160202944441442,0.45272858562211754,0.21102024778558207,0.9420711134119375,-0.51972304888095,-1.5643175457630478,-0.86526170387090717,0.52401685427153788,1.3469311180156285,-1.0483646135533484,-0.028852851500997912,0.66912473933588734,-0.81275254458296142,-0.044508657157961762,0.38271963050956437,-0.28823152504995037,-0.82321348672554262,-0.06797715612236821,-2.8749865162671018,0.19380495668521822,-0.34570117274939816,-0.066957374201715311,-0.31938570829169927,1.3303291123675252,0.0087471293595432677,0.98699382992479734,-1.57099445443393
-0.25975274975249896,0.41214852947869074,0.019361708587528025,0.090414906037515202,1.5273190393057605,-0.27135731918669287,-0.5834381325156428,0.31714406182388,-0.5738103286067251,0.34297176221258718,0.79389829777446486,-0.64205802540957702,-0.96532511765385076,-1.8125061554319544,-0.74640590439000098,0.015150620766562059,-0.51400274940359147,-0.1109578481776463,-0.47284006546735996,-1.4607873105397522,0.04644055923309337,0.23011496511025464,-0.3927978379093624,2.341095746832393,0.2246815210924332,-0.15020617389167515,0.707035925494366,0.90781314357940035,0.90521540708645876,-1.1827767060934151,0.4531267135167098,0.42813801602214241,-0.0086772618518837392,0.95769299305226474,0.43830690262829525,0.26166632809752755,0.19800653915104938,-0.86943143817497659,-0.8826358871212312,-0.82541668039280058,1.0880298120536085,0.96316218655670405,0.51160672111170558,0.2958535569868761,-0.52626908111946846,0.77408556654358929,0.46764270563144233,-0.62842378802279619,-0.97504398712551577,-0.71765285131934764,0.58729629602252087,-1.442424168678565,-0.38444452787571476,-1.1145030137870535,0.25816196557078513,0.32295844720264244,-0.56025474626842531,-0.60265770820449971,-0.77680847711976964,0.0020987982904447314,0.8664453105981208,1.6075621680556369,1.8599478200710133,-1.8935175067243644,-1.9405085539270217,0.033254867596901584,0.86543848975059712,-0.97450382509387712,0.76562811979364387,-1.791840101900549,-1.7313668384660832,0.17757890090022976,2.0895862472986595,1.5406428391435847,-1.3485668399868638,-1.4192040953004592,-0.24368381047263557,0.39831494743939666,-1.4643031113344391,0.13147431906216639,0.48842061263752012,0.59219260010001351,1.6616405089131172,-0.30609547988982505,-2.3202087689678201,-1.115559183112004,-0.23761271926975447,0.69036246219497766,-0.1387058531417884,-0.11443980607153215,0.65279216044967925,-0.17598220980351162,-0.87412955920602442,0.2784285693327021,0.55766196330158391,0.64362932441427989,0.76772446194848809,1.2183561950631916,-0.26941584904032762,0.05524657696306394,0.3931551441575909,-0.22996497429950105,-0.7717567478702001,1.5416259808005857,2.179594320304298,0.46310607238103119,-0.84938336598568409,-0.66638289380742299,0.61514695688886389,1.4609799274265329,-0.17223595339930664,1.8597506270384645,1.2463255324627176,0.8984920051073233,-0.7921089396173796,0.096719256138939544,-0.095641758558686465,-0.16429623865748538,-1.5933304081095254,-0.30698067743291252,0.16020694145450159,0.054942662921638713,-2.5748107970879981,-0.0085935720882063197,1.8008192431074095,-0.35428251803269828,1.96193728735649,-0.95797569175003205,-0.35185171436422968,-1.2390552819432641,-1.9632309603117817,0.73620456139013757,0.62159508010659226,-0.48525194570596675,-0.90278627788883614,0.068051289398291553,-0.56310803921994812,0.90622305545006177,-0.549969998390193,1.0089615932128566,-0.57766701423495914,-1.6629350832846876,0.82572235928735416,0.23962041465565856,0.78509973367144503,-0.60790451532396195,-2.4473020156859295,0.9731051681528321,0.13944840888028598,0.48956272686287677,1.3882099765457887,1.3640894819348128,0.091870650824472141,-0.91341296233253511,-0.88903603176621149,1.7636524620272651,0.49315066303269872,-0.53510559106343536,0.96030250562286312,-2.0004271247184584,-0.99294932078486264,0.54894654968624357,0.73390854494436542,0.41816221318086672,0.15773901657561712,0.35626900474506373,1.8467451536264687,-0.55460918531860603,0.20198312111074634,-0.64991298499575745,-0.57339040944657382,0.34117673255589887,3.0231021088275201,0.41939201700353296,-0.57020975021217224,0.43501089995300213,-1.5313023832006984,0.58474508525926172,-1.2063760605167333,-0.57911531145152451,0.13451989541350562,-0.089563559042645305,1.4260534690219202,-1.1271458872258853,0.07100010520216235,1.4828137819028118,-0.83119368284300343,-0.59890129395518199,0.56521069923330824,-0.11580572393419998,-0.41680337227737951,0.22477590943604944,1.0370894290185719,-0.34091401765026125,1.054731815836113,-0.31859313614139562,-1.3367487186717952,-0.78342550338143879,0.14841244429839415,0.62034545858465973,-0.19874991935732297,-2.4089605740584927,0.41173018942383993,-0.082577407222481594,0.18384881995070701,-0.28897525865045998,0.11411927990072733,-1.672289450543504,1.6558956503818689,-2.5156768074809217,-2.6396437997926596,-0.96037488137899529,-1.0536837047774159,-0.93830336266263337,2.4546643013209666,-0.63137195573670502,0.8713913798894668,2.1547808208491643,0.76397076726907198,0.7227296556568733,0.17477173368694632,-0.77347277805144832,-0.64784590710528545,-1.1199905912023365,0.78533111091770691,-0.39019928045317931,-0.31230679324572258,-0.69552020530242331,-0.32218504384202595,0.16810241528327372,-0.71054557380065786,2.0125703160448021,0.71276747711675648,1.0819697337231229,-1.4699140169861349,-0.15821554901699655,1.1484649030501801,-2.6000051584251924,-0.67191692469901143,1.2278766639428971,-1.9991887809024984,-1.388731989276434,-0.22685437233579328,-0.28366671226321782,0.30010407051976051,-0.53825071962827031,0.7994465445674096,-0.63891728355976041,0.52630658438531219,-1.5947432875376171,-0.93099730783155699,0.79101017254258144,-0.3340102525436433,1.0105945038911648,-0.059393462969572992,-0.63948900015350219,0.0020303991370511569,0.68482126828677092,0.471357481826708,-0.089309636618522051,-0.57771211395287181,-0.34270316254099142,-0.064445791299690053,-0.87607414322681543,0.83628465298772225,0.97955428962553837,0.92190981963751051,-0.81946970558430765,-0.52596558805854354,-0.29491299375063695,1.927582283923768,-1.1353293023845332,0.37435916675883496,1.9499298600796866,-0.91611556851654452,-0.61858800520531276,-1.0975083952221132,0.29331858879147871,-0.55910502289237474,-0.048853144365376702,-1.2778849874767182,0.35272372320251455,0.1206668222493411,0.29396222363742464,-0.092726664025547662,-0.6633097904290971,-1.4553275772421419,-0.79332021462729252,0.65046568372889157,2.2774643471145306,0.37309659658604372,-0.41814371899169084,-0.072050881095162819,-0.23096020696170244,0.1194516607293383,0.52288191412891072,-0.59499064530492807,-0.44589202747912743,1.2940809647207561,-0.10718496833241406,1.0453550092231292,-2.102556011933681,0.21104735744314379,-0.006601812095074054,0.92582403621552822,2.0346175599751284,1.7495208508687696,0.17822652463395852,1.1425931455764167,0.76910122408207948,0.55247619723163355,-1.0203449279877337,0.356421425204202,-1.1543271115025862,-1.1823419331745288,-0.082263517220384538,0.87249191192878373,-0.85372893444158582,0.41711977985077148,0.60886840636156769,-1.4018887763162142,-0.2543062549868792,0.26771185049781343,-1.340797921847436,-0.84954572652864579,0.30683447347441611,0.58326294630325759,-3.1556415231442547,0.77416073231445004,-0.03417747161723525,0.1464455551545385,0.89398412438191055,1.1734343693319917,-1.5167252114899161,-0.6837462725159893,-0.61211312880974578,0.77685887101354756,-0.22294480976271416,0.61757948277785335,-0.62972784141200799,-0.22000327792435756,0.19663089318260901,0.23329847045208846,-0.43871476558874334,-1.6610963853923109,-1.0521204307819099,1.1268982616531122,0.11640775329128911,-0.96959651500758748,-0.054114739546806741,1.9094667874890165,0.8277466717595392,1.0919517228592994,-1.2936880454293307,-0.37305368965926866,0.88144292407475056,1.0089628057913513,1.0697156778955248,-0.38535763502049863,1.0765816729194044,-1.5813820917049723,0.78856917070211663,0.23026202793056505,0.55963831086209748,-0.45353767208574736,-0.57190962162235104,0.61268947485665981,-0.84093263681961394,0.28017232503338152,-0.0041510412073066149,-0.17540089992015648,-1.4005850535362108,-1.2154643640397642,0.15069804787944374,0.45704312117962936,-0.6284226674738268,0.0086620666531130094,-0.84556420472987548,-0.24505921461313476,-1.8353638566844825,-0.74545338008689532,-0.57807516133213543,-0.46046961056743313,-1.037627975668842,0.0016330126200556647,2.2706408567513829,-0.10565975708656326,1.3704371020303026,-0.94384437173608793,0.25248870838699977,0.16875467854317691,0.3285830516153721,0.81442348715939206,-0.17902738364677001,0.56850956727862467,-1.0134960636018737,0.41140665687393907,-1.4017438911638791,0.73131360437172777,0.32306478503332481,-0.017723747722015692,-0.40056456184798139,-1.3571430386128669,-1.9184582176659186,1.5999478022126468,-0.070668572467739624,0.60484054399779641,1.5096397913125161,-1.0192712899559777,1.450760468350065,-1.1258427430223683,-1.1962252164367362,-0.33268492883444528,0.55555282390142147,0.73643479339069129,-0.21722245999929027,0.32045261234298777,-1.1729917715251599,-0.51497690796804063,-0.88845259980656344,-0.030704504520108561,0.29617966570707061,-0.73839312303972293,1.5281871779030543,0.40753334399641467,0.23724251722043158,0.58107951623652876,0.33839874642448808,-0.57329738086277016,2.2397305456245347,1.0368296692778294,-0.87035728482858232,0.57962004984145166,-0.27568435878183706,1.1775858459096284,0.14123019139944271,-0.14030301901336786,0.071932813738466467,-0.83271079514602575,0.044373963373797169,-0.58196166241379821,-0.41451465602824239,0.28504813796695377,-0.42027768638667989,1.4674933127084657,-1.0314244629242466,0.049092243807305896,-0.76693553120707036,1.4228067900889156,-1.7735548924753803,-0.60346291373047611,0.19368961262145934,1.4543620187809456,-0.92016149158390825,0.5372532837308196,-0.08424668292076376,0.025160591602880155,2.2600027307501924,0.58280672728652894,0.72439792502915656,-0.18841981241562436,-0.76380533377761906,0.78288901336351069,-0.075439637077767102,-0.52300626127385375,0.6354640775954199,0.37481963666623053,-0.39718540475303882,0.46319266565281353,1.1249292332809129,-2.005175953459243,-1.1839688938161312,-1.0525671832701557,-2.2306689826255872,-0.73013433604421885,-0.53317846758817422,0.95240622748095061,-2.1236945174883721,0.38130134771246604,1.0974186249931217,0.18044594008473161,0.86796756139510767,-0.49058090464010434,0.21728030163449069,-1.4486156298144677,-0.29866469863056422,0.51057160040164695,-1.2673350093842428,-0.88988853170809523,-0.321247162001155,1.2143340574968704,-0.73441656818938617,-0.48188981521126101,-0.40691661653244615,1.1135980200808253,-0.48698796513165138,1.0732877074276648,-0.98258127740088008,-1.6624406593809815,-0.23449550415900003
-0.57735093263573989,0.22649955471699668,0.66561858654216643,0.31274457480216961,-2.7486670171146232,0.6897008530225367,0.79627329056107699,1.2407395703025557,1.184808887070264,1.228055022677579,-0.89760740821438922,0.2596999600374581,-0.83395745679264743,1.4216670755121865,-1.0804156688918984,-0.30869416075667272,-1.4695576475279428,0.71899775352746775,0.21568186217545779,0.62103608455865977,1.0418642534351752,-0.19540626769412156,0.29785548394868411,0.56378688214044925,-2.1129393732311113,0.60150444949769788,0.35478582193111408,-0.782380377915317,1.0283802946844369,1.2321595503002511,0.26878348456846118,-0.31870044725719193,-0.54749676481305209,1.2013057473308659,-0.060228206309144321,0.66296392005483074,0.24653170401044111,-0.74356351151529843,2.0467872850880946,-0.85477171787854733,1.3573629960856208,0.24148550809673647,1.8980079840193413,-0.63485149004577768,-0.22994801295555467,-1.8193113356955983,0.47483482240892749,1.099718331879199,-1.0951977144799272,0.32230431382386515,0.1525666840129844,0.15138923693104189,-0.43027769459215348,0.17286719701605899,0.0053718050053857104,1.588022433811199,-0.3321769055089786,-0.81434434392664856,-0.53317311710188386,-0.18929716898668819,-1.1347032274595181,-0.75573594225861451,-1.3801382583111654,1.6719943251242286,1.0476498953568836,-1.8013125972512156,-1.0188411912174609,-0.42907738098250009,-1.1199514809070135,-1.5756471864858108,1.7574551496204207,-0.20735833398742884,0.98694344584142757,-0.082670018874069565,-2.04476083685543,0.80309802322510315,-0.36378612727273729,1.1512304166423915,0.35629449165616217,1.8667116324584412,0.88822273295186527,1.5546369085959886,-1.4653828463348892,0.12268250238673138,-0.96126603244460018,-0.64926706744121898,-0.069436686100677145,-0.058298353599209131,-1.081793883469466,0.063695763262770017,-0.62761166812739777,-1.0303450710076312,-1.0010930682470855,0.2390679417509913,-0.98812279843703466,1.3872300230978412,-0.22490664854271272,-1.3985472596770525,0.25623992488661701,-0.89044005436242757,1.0091344831519085,0.36700044121697561,0.50268327426895065,-1.0001783518016389,-0.91960619284305201,0.56957823430430388,-0.49621849244357003,0.16893978244532301,1.2203650794334462,-1.2665722780710078,0.77042284156876994,0.87287052301834867,-0.035247913091028225,0.66914231236833133,-1.300962455660956,-0.47619069830192562,-1.6839203739291413,-0.48221558969771045,-1.1118728290093292,-1.0022754764495827,-1.3495362148885715,2.38646011846008,0.53046691139007618,-0.18366270606376345,-0.17428923220189285,-0.60570368363875049,3.0752235004756612,-0.74186366619129807,0.1789826641182046,0.013897158814848142,0.075732240228572292,1.5247707875448979,1.6719133304257483,0.66931017332248921,1.0477877300280904,0.053171731270291248,-0.42188993880572373,0.3237805394057432,-1.0113268056608482,-0.34840012201047582,-1.6158348056755027,-0.3632684178291653,-0.98934824205692995,0.88141357481005089,0.51807332240522441,-1.0752683670653012,0.032449666790054857,0.45713663114484698,0.20492036302399266,0.35650600003824617,0.93594815274482912,0.26729456209910496,0.97506623248245927,1.3428371686347733,-0.66042165648995677,-0.10862020722088291,-0.098887544213791298,1.2367074608908015,0.052339504362879923,-1.7273503925750526,-2.0122070537979706,-0.065911650906979688,-1.2147279952757237,-0.16143164397294624,0.55878972723392817,1.5959726161070005,0.54057297905514856,-0.21869337966690747,-1.2350373419839054,-0.22290016890864311,-0.6808937088975906,0.89373292951502625,-2.1175752635741603,-1.3475379349384955,2.3021660996570472,-0.32137289027058202,0.67263823029682823,-0.30971594630317312,0.0061252448556060957,-1.7181711379915474,-0.0070125070703373508,0.14586964677363573,-0.78969710127581061,1.0738440747762328,0.33424824302069811,-0.67361293156085933,0.85274358097662839,-0.23564824151250008,-0.43371087155385346,0.33316312471316084,-0.26302094384501085,0.66817338788904068,0.68474555815182558,-0.25383731688248384,1.4979389349005512,-0.0096117271570915781,-0.58562423843016642,-1.7146460093582296,-0.053147534206129249,-1.4535144204016577,1.5101402777693083,-0.32961315920522949,-1.031765925701851,-0.88502214611159014,-0.26481729831067163,1.8557131084804805,-0.58160050233013882,0.057968325708234847,0.51544559457093919,0.68272710384482116,0.48476995803166345,-0.26912979125133979,0.27331681033199301,-0.85661844045793201,1.029080894248928,-0.15984515950392353,1.0953948718507065,1.5640462916379529,-1.8123024660140516,-1.3612515075162259,-0.30834866402837752,-1.4132856809677423,0.19433561398015245,0.65194648391173271,1.2139869598522146,0.66370040783955897,-1.7192420747867416,1.0440904401612148,1.0725857447219846,0.30873096265760835,0.32409257895560645,-1.7332661752482965,-0.5736494328218984,-0.36553104209801068,-1.52885233178081,2.0722372073823916,-0.25619685380346374,1.7211787032184236,0.77156051943750303,-1.1563627027687096,-1.3130852582715689,2.627308691742622,-0.48327457533416712,-0.75245710413717615,0.53771920205010804,-0.84804848283192114,-2.2193325697773467,0.40770929703293407,-0.98017193261136148,1.006183532499987,-0.78554914901267392,1.9132144364866444,2.2053079264493918,0.034126491081112299,2.1439190646815756,-0.39264925938744705,-1.6603056238148981,0.48528984460554359,1.6991090231069523,-0.075138154819165873,1.6301920524908633,0.00013076212060120451,1.0782877049026163,-0.98965852056198567,0.75690791597335882,0.0087400906533312856,2.1227591608037919,0.16628818331885081,0.28090534817592255,-0.39595551635936826,0.29382615809983148,-1.2424399328171232,-0.31448324552060875,1.8716203414325694,0.10498360296274471,0.31500653178142446,0.63815838995378504,0.42219180255667288,0.94176988429634945,-0.45685644005875836,1.4711048945801002,0.40542896345301627,-0.73039888547991949,-0.31140222996291589,0.68472811793993849,0.42124793901352969,-0.82857041750745097,-0.49469379741233971,0.85770524197938991,0.26546619351621997,0.47952719212765899,-1.7189882140465664,-2.2222395091682206,0.45043059676265812,0.35555334250653176,-1.5171509586019776,0.29042939031675258,-0.25728360513228937,-1.1597160696907995,-0.15790837098616287,0.12325631650546133,0.026868835529559609,-0.39994237483420136,-0.053147464019582619,1.1908182004965628,-1.7890168223406546,-0.828274803819395,3.4245691785664496,-0.98069152173135787,0.85296626646745144,-1.1448159724259201,0.0075214773812104316,-1.0686614794757752,-0.50832451928861244,0.97108803875626204,0.35574924167448718,0.13558048518143526,0.16883492159067315,1.0999443599836407,1.4180785835306284,2.0558350340936711,-0.25888247958788363,-1.4870175692397365,-0.10225389116187861,-0.84057047683121733,-1.9858854569656046,0.89857286337716846,-2.407807776992398,-1.8902248147535092,0.55778873957131947,0.34018291960445501,0.29399813042921424,0.031482198889037402,0.34085111581806182,-0.54750289736531499,-0.6455618743936089,-1.0122537997238676,0.26605409674369634,-0.45036590713687213,-2.5831997769694248,1.5825390371227939,-1.055524561227295,-0.14266806902800172,-1.8506232175285979,-0.094356667789680618,0.58922710648633381,-0.50161298731306248,-0.46243392321211862,2.1881272363939535,-1.282866916679744,-0.59470700277433364,-1.1788586813104018,0.45556720702663067,0.42569304138279906,-0.90099862047505141,0.043078974518101991,0.85831729269297008,-0.86995456030034402,1.0438684080788923,1.4181367410646355,-2.1684016145962728,0.26158837186122103,-0.30519261189865016,0.14307735613745851,3.7855972607154689,0.54624515410149432,0.13095757254593218,-1.156606932427293,-0.24351693720292447,0.28311449081433804,-0.55962441142240738,0.48001859057896706,-0.41235052248062393,0.18370567899921883,-0.45849324891233351,-1.2923292852679045,1.1187111706634334,-1.1299936694574413,0.68923251819393616,2.0416502419603386,0.44399405071686182,-1.4546304219987611,0.4309198790045331,1.2275199756138535,-0.090152489272332881,-2.5294320254929343,1.4766073019692423,0.85571874138241255,-0.95266754958674815,-0.38604119092966649,0.88377091282476328,-0.85000510243287974,-0.40093587668685815,1.5507248942206882,1.0244140937634028,-0.51574582904890853,0.68148118968095728,0.00092505645175247186,0.079050063295339645,-1.1061916843217727,0.44190173808174682,0.97716987195738914,0.27102979722995513,1.1666930851189128,-0.38867407446578167,-0.86946097238188924,-0.1337285159039111,-1.0429705469521804,0.29395680830210558,-0.98228947742986295,2.0296206170342526,0.95577179745905616,-0.24708938057103549,-0.76953972470069631,-0.057020804866445562,1.346026207619897,-0.3822152909425523,-0.91137377450504031,-0.95957547558842782,1.78436317221109,1.2929923443990154,-0.88084877314632948,-0.7450576954004422,1.1146122146907516,-0.98874023057386795,-0.29524769826134756,-0.28648409971154287,-0.95633369809007129,-0.23811512552986588,-0.81297753895606761,0.84758810520169758,1.8107736715374811,0.73591188729280499,0.17558555543677334,-1.7461651331085772,-1.6480743615167663,-0.99634609032058585,0.91156291052330518,-0.20797441285728574,-2.1165108162844803,-0.65716227304792962,0.52891241351375173,-0.073823011875017691,0.86864020468660574,2.9976853433581598,-0.17178036724247503,0.16677437312310475,-0.6116864912292671,1.2704229050006703,-1.9994567333797286,1.5346316124122226,0.39022646470252548,1.0852047044622588,-0.41213245104597229,-2.1990301418357725,1.3998976813997572,1.3482649287627575,0.25034073407159646,-0.51832827755382016,0.042808164832285632,2.2245406463331494,-1.5863801583412329,-0.83153344381595573,2.1483803713346821,-1.1401991306000179,-0.28714251059043033,0.32874454739722642,1.8064649851376759,0.014014102629405981,0.052572481382191963,-1.6055112481719402,-0.56162664983524002,0.73181502626361428,-0.026099920137892668,0.41084425059056284,-1.075375121410848,2.212424744972481,1.8283067582381256,-1.037912902514609,0.055566719507456355,-3.075182446625115,1.1735587801811709,0.20563386573921308,-0.19591720011548827,0.91485884809545126,0.2561062290188546,1.1808183422954011,-0.15829703684287449,1.2870293807925504,0.17183587098247941,0.040290676621847168,-1.2729884383154133,0.89456760093424326,0.32967649204602983,-0.1423888163502243,1.9965922411232966,1.0903803994074943,-0.21413151307376987,-0.9547846818642044,1.0247606691352786
-2.1884214685524297,-1.0803736550325818,1.6380132817350506,0.83688195190776427,1.0126022813531117,0.48194651421278595,-1.2591891636004111,-1.1797292721406882,-0.27939505529981706,-0.38950097410586687,0.37884125967746773,-0.35346975977141865,0.13126827945852912,0.35347612604904211,-0.95509538276836681,0.5573537928787573,-1.6355685152906816,0.58731117257047372,1.7642886691284816,0.19032613967972709,-0.5381646636016959,-0.20610652852194147,-0.13494299839481785,1.3695717447334859,0.40842199097306131,2.1025499304275623,1.9896283974502675,-0.78415876316936806,0.57534290020776346,-0.36515322572592313,-0.37059749558244331,-1.6911313012016744,0.22274835182967229,1.2142109066545552,-0.57649385815500076,-0.77615345026853133,0.14678310210869153,0.6301478476217961,0.19219266264070556,-0.056062217456134558,-1.0078724777111709,0.12880894726822925,1.3076692411315629,0.53262640618226376,-0.41033472813530975,2.5029557184168563,-1.174809697188016,-2.2951202976598224,1.1780042729190021,-0.64173015065223182,-1.7921409801763988,0.42529214982764552,-0.055451245871500993,-1.3749864818368365,1.0067403307466636,0.18869812305305225,-0.79755242291990924,-1.793664551644248,-0.9919646904276056,0.78275745954987419,0.17636460817403987,1.7376200237079169,0.28002228376039179,0.22959450649234719,-0.94289236950306832,0.47320084088334746,0.55594230246225063,-0.015352553216368317,-0.45170656026805672,0.10732259081648368,-0.70428599426927796,0.48289474116050912,-1.4471230702519757,-0.060896362435766738,-2.7460898461584553,-1.1548077257691363,-1.0473708737105103,0.78182397432016604,-1.721574640342546,1.477994646406702,0.60167716921481518,0.6650613101958065,1.2299909813487988,0.2099281915668981,-0.077710166908531761,-0.13437017651180502,0.61444021763202461,1.038106619915083,-0.20675898767073558,-1.1391516522686786,-0.5077471254608964,0.62521224414421195,1.122059142704388,0.56670536295058516,-1.159796791893609,0.45446241056908193,0.10334726003844118,-0.63494831762402726,1.6409512028201123,1.0686869420001497,0.90730374732109331,0.28644922235637149,-0.8171451770058985,-0.013749976020360785,0.23903469074934719,0.035467328390492832,1.2648097324949386,0.031014853424933087,0.66472058596476225,0.4461502577976269,1.3035922174413057,1.0648342714676697,0.09397482734005469,-1.1820043066897727,0.93665078846291072,0.26586201543222704,0.79879006571749156,-1.0261467945203804,0.55076232862825258,-0.26543996392939595,0.23402732969270118,-0.84897832070854151,0.44723817143003225,0.26568083042019125,0.19963418652706896,0.66683376667491168,-2.4379361176749041,-1.9838120943433859,-0.55717630860698186,0.59471656035706444,1.5084822706842356,0.66696477811647326,-1.3049300387190728,-0.10521903969337958,-0.015584150419725499,-1.5891328664323814,-0.58583109416848655,0.88269299875935492,-0.53426438277701527,-0.42015462095743938,0.068822012504543617,-0.23268279684523713,-1.6607735203586045,-1.1351863728548335,-1.2879713399764454,0.096137271076113875,2.552358066448047,0.51334301844818964,-0.12055917641199822,-1.1215411912148947,-1.9465015765278273,2.2431369193056212,-1.6779270578039935,1.7605071026235823,0.41617013255352364,0.68261308608927784,1.5010736447609061,-1.651931509093276,0.30627901563755949,-0.79285946785694117,-0.54347073532523071,-0.29997507219393954,-0.27196434963073757,-0.30224149326164662,0.89703643413127998,0.33353252444875986,-0.84141481972193211,0.79631779112269219,0.47308453064391714,-0.13010799642484328,-0.0044545014572836324,-0.80604539704872358,1.2177907577861442,-0.58254407367017169,0.53961782851180928,-2.3753308090329162,-0.017651254289159257,1.7366120235585869,0.78261104464743658,-1.1177413542548742,-0.8322581612009291,-0.19221682492751135,-1.9393083280286219,-0.14760136102572666,0.31546488888943797,2.1181123384246643,-0.48991850886220051,0.1319414704320348,-0.61897819854010905,0.14116602574289944,-1.003050021676561,-0.62380004289061264,-0.83850054544203512,-1.050694947601895,-0.73042914656091884,-0.30069191848455612,0.97333091628584367,0.82740039863872628,-0.27819420331062994,-0.2798785772095802,-1.9174505453952415,0.44905294583693195,-1.9146948875566123,0.4505361431580025,-0.5448698703521907,0.015426966818407772,-1.3758547085423076,0.19688193686279989,-1.6923511672570546,-0.03050170042660753,-0.26792170386826941,-0.40509990676100549,0.73737044007935026,-0.35351696490929208,0.96523227762247166,0.56560982425953743,-0.81321916603047162,-1.2009745465353936,-0.22352870661364513,-0.3581029127648947,0.56677494578725518,-1.2375751874350942,0.14098341369216782,0.96320672328458889,-0.41141518625082413,0.12227120117976588,-0.024871091771880582,0.49676847793328432,-1.6412773876144813,-0.34021463164012689,-1.4880722347705277,1.3082810178674791,0.40590008976857095,-0.16587046801191457,0.74187182093127901,0.23578134271520179,-1.8400295171756083,-3.0798670493327682,-0.073848053120348908,0.56983694553287478,0.096181048554923723,-1.9485193562085787,1.7681914925893747,-2.2808128830084242,0.008159879377795649,-0.10596807352665763,0.0050538098181104841,-0.92974738170831617,0.18475141111009485,0.041357709188359605,-2.0329843488325423,-1.3857623912519841,-0.55144880356639581,-0.1517344198450675,-0.90978888108040057,0.44937778083837349,-0.35212721580193918,0.7250762201963673,0.50866026370388195,-1.0196417671472973,1.153104500191096,0.025372862738893092,1.2381448508164972,1.229989410086417,1.2768929469286006,-1.2479303005522646,1.8798295443584547,2.5476256820141887,-1.6368564831818999,-2.1420141173737957,0.14895475432820315,1.052526377026761,-1.9186611060742074,0.16491119480472885,0.74219265866932949,1.6191869953269644,-1.1111859389486869,-1.2818930056008069,-0.76945154035610397,0.73134952604694381,0.80661293910352194,1.0693605563151092,1.7684467009265179,0.58145512117353171,0.79648897115516304,-1.367384386621892,1.5269240448025012,0.18875688818283143,-0.87127300347453096,-0.56036056315083249,-0.79901791631364016,-0.015387803944700226,0.17820895234339937,-0.061346633899791218,-0.57336406497186843,-0.41262382524916819,-0.4934930606968263,-0.91150347844895174,-0.61402051444653261,1.5377857984826,-1.5977484443153074,-2.3450444852354333,0.62874479338088707,0.011632304062963525,-0.48059960928246387,-1.0582821243635281,1.1284480787915254,-1.7040992428680657,0.8375800596509817,0.35492793487089258,-1.1670772930377855,0.61128622884771666,-2.3675021125283395,-0.699395523846851,-0.64491450790742222,-0.96148568132758316,-1.4023389255059608,-1.0346823527603757,0.16360395931704039,-0.53716848916461546,0.54496098584497765,0.89264229434501385,0.70206763220170676,0.35621090325702948,1.1608036981185932,-0.14740101952096601,1.9742155385795022,1.2750745172630857,-0.6825409160053536,1.0914915891925561,-2.4666994271550977,-1.0167902745226831,-0.7944233494874241,-0.052730950535938022,-0.5838309769462745,-0.49366546474837997,-1.5848294430980248,0.13975139043160212,-1.3363591283589222,0.35370182314410586,0.84289811582632346,-1.9321432969970549,-0.00059396289003567197,-0.80466386273468427,-1.0668146410642376,-1.2899907086246538,-0.37564248583348769,-0.12674704854322932,-0.11204269781895762,-2.1502944268276623,0.98409304848139434,-0.73316387912082248,-0.3040069514350956,1.4632039193362671,-0.82863656577841971,0.12278620570256306,-0.87240727537509577,-0.85718827214432392,-0.2569144385524767,-0.97262746161944913,0.038951307181819599,-0.96601383355195414,0.6640862614955455,-0.84422006580565212,-0.45100294522644624,-2.2868891971573215,-1.0107059611200271,0.98679559555866836,-1.1190677226232242,0.50711421435152571,-0.57036748588546227,1.3959564285516002,-0.29317546720593651,-0.29356102660018929,0.11460115697257209,0.2314239570914495,0.84444439707318408,0.44866694471797064,-1.3877020099827639,-1.4070306732075208,-1.8069900123354472,-2.2655603997150466,-0.31690932564923985,0.81115851216894386,0.81390945881337651,1.2951409388303603,0.98029048235468663,-0.83960987275458376,-0.3588678586007924,0.5984039715181757,-0.86090061674203722,0.4868363985536811,3.3069593266764619,2.5417680727538774,-1.1145992180033872,-0.35794620800549393,0.20824743992077832,0.83414713794885698,-0.18924256877118006,1.124393255074968,-0.82149740627783296,-0.94563076800542567,1.4054108986389844,-0.33306663287466909,0.94818164626621149,0.35096716639680409,0.59967018809357298,1.1729638491474303,-0.56794655657652626,-1.4048290837214885,0.21085551315647216,1.2908472418679171,1.1378469555227388,0.28007487814214271,0.050767817337239722,1.6014688914548805,1.7398084349006722,0.77032964653704727,0.91950973071762154,-1.0212224898106592,-0.2507256055470854,-0.063726181416533606,0.17604549072195969,-0.0092337008727607275,-1.3240698487697948,-0.49063104957149384,-2.239637735596117,0.76796362414386865,-0.88633593087329643,-0.45472101224722855,0.08437237801275442,-1.7984277376984072,-0.63681706480991873,-0.36373684911128606,0.4796921580572257,-0.15655604836528095,0.075718642636056252,0.27265169683153634,-0.9422810534617384,0.31167155329605223,-1.605689694939076,-0.024767758131416406,0.32280840446671905,-0.68825642558763667,-1.1788993389935045,-1.9802434286457438,-0.6450500507846112,-1.4510228028685406,-0.35552736391791123,0.050750967179625468,-1.1753294640765253,-1.4213376536647362,-0.30780211537187185,0.77734715546749589,-0.40632948844980948,-0.39022097037792952,0.050244277067999291,-0.23992584807718575,0.47855290784174292,-0.98904078786862615,-0.35541967792207219,0.6160636234599659,0.76591338250210561,-1.2497803336509581,-0.27481144109417766,-0.9693524615655128,0.14726972729227189,1.436041823319071,-2.1809656782553324,0.020559938430143618,0.92317532876240227,-0.99812325705738891,-0.90523444579355661,-0.24926710309463926,-1.0275499521865565,-0.76184128171036636,1.1111009012923403,1.6029369523948866,0.083218017104568193,0.36532359032387229,-0.50585036932703498,0.2076971371502101,0.20367049209503757,-0.80445774677956716,-1.1696365333010734,-0.80138759637192802,0.97896486674399963,1.3818408990497208,0.10988301708470083,-0.057312352628500624,1.1572933672486643,1.3708734893288419,-0.1235991844583432,-1.0172642139148658,0.99936974669980339,-2.0857637980212229,1.4915175432084902,-1.5440022800113351,-0.064945344035564956,0.84048524740445429
0.55532566388875904,0.95041051295300827,-1.5938553729394991,0.73945260983661465,0.17908686406351174,-0.72957373032146855,0.4408843766897616,1.0684717497075229,-0.43591588600910164,-0.72074893579426802,0.22051413290484689,-1.3685349537671803,1.1651882391235504,-0.56855032866043897,-1.1140211024417881,-0.75683915389148215,-0.60454441345010834,-1.2279840468217655,-0.89725431618977114,-1.6282889703819106,1.7341237379697454,1.1722335725035395,1.2141832407263839,-1.0166845642742128,-0.35136800325934225,-0.26500129815736695,-0.83385484493285067,0.5884224926171665,-0.052372455941518369,0.23583785865487494,-0.81778482094612026,0.65419665825187878,-1.2628332744392017,0.18047401945615296,-0.70669089673202723,1.0629021614302008,-0.41556878954853022,-1.624908680297517,-1.4479683366197602,0.3230040286287002,1.2236386693362604,-0.029657268786103842,-0.26957940188416102,0.05241986558302824,-0.50553274074788346,-0.68578806830974237,-0.19040551948979542,-0.89733366911700485,0.89850308434993154,1.7570823024691664,0.013951476903192232,0.82886013030737027,-0.28769353319382029,0.44931590201855159,0.025489715849382765,0.67513329798757238,0.60124843896066649,1.5912682367213804,1.0174547234709423,2.9112418169813195,-0.24872145525884284,-0.8037929249669965,0.077420410345122953,0.1530171361370381,0.45497698644027157,-0.19715806301869873,-0.99680211526211848,1.1042073481984629,1.1588068061092116,-0.13222778100033197,0.010625178970387906,0.29620961473918067,0.18746665825331596,0.38325276798476343,0.22374976442771832,-2.9125398438280903,0.5411530239526946,-1.8520664152071433,-1.3367846414604869,-0.67300828330502249,0.42963337935444496,1.5563300491793217,-1.5263135913430985,-1.4332815128000482,-0.64261827083044276,-0.99360681078038282,0.61255359339473281,-0.84908479179269192,-0.33627349589495265,-1.6711728022514947,-0.094388552225796743,1.1061687072257005,2.2330321039984691,0.31464538608495951,0.32892794729027447,0.13064379817963723,-1.4810833940840746,0.54105572015840231,0.96437200200649864,-0.27782370588323357,-1.4592687220148837,-0.037928819386342745,-0.53835733726868762,-0.29058001322367677,1.2135402202638021,0.65569459705671773,0.25734511994749032,1.4400492541857592,-0.49252604880428991,-0.35445234092521238,1.0323359602938373,0.28196913479046248,0.88840281612166128,0.93263556304627582,0.12530851368824614,0.23944662878654066,-0.1900644569870896,-1.9001819846674477,-1.4021450849183543,2.1618745749392341,-1.8801675131421536,-0.75640667023487396,-1.1009489991041499,-2.2436936812903463,-0.44027932271295389,-0.30530002020567004,-1.4358446669170861,0.34541241866894207,0.90331748448886817,-0.73921579952164096,1.2368676211703455,0.2077485441452151,1.1042963383258719,0.79716275892950161,0.67363348703030523,-0.61143663087104694,-1.2639428399699777,-1.3507073995947205,-1.3788602159270171,-0.4714018302357349,1.3740048076882692,-0.93799596116551698,0.37084153805164793,0.83174776037669995,-1.8778614967188665,-0.0096613156319953781,-1.0235737313246962,-0.31701039522251945,-1.0318527029871991,-0.96624931101575329,0.58616129004495299,0.2369432126080207,-0.019859811890981717,0.700240312694977,-1.7498660404789175,1.4723081687433253,-0.57023620173162126,1.4554541165001547,0.040921494422165076,-0.031736637806008501,-1.5632773635323034,-1.233626635838847,-0.22688664081382967,-1.4566967456360964,0.19497586270120265,1.0764486327852536,-0.36859845448709755,0.20387001525164,-1.8446011515765193,-1.5359193078306055,-0.40535368862269172,-0.75827160575985231,0.94386931370787086,-1.4978560971523971,0.81287908823394373,0.4418495760900914,0.31274328964796666,0.26446246211648949,-2.7109197055717935,0.62275134880486471,-0.95474942978395361,-0.35703150350181295,-1.4807815530290551,-0.11354598726331268,-0.25785430532329284,0.043305049121424299,-0.46632521980231445,-0.45605121455008163,0.16902392606954056,0.41976372350291907,-0.97394643260888847,1.5816392878436931,-0.86593669998139766,-1.1094657395933023,0.56801402917688215,-1.3170191815194494,0.86691383246891096,-0.25973161440506815,-0.64941656947634285,1.5184353622023261,0.096287708182722101,0.25520577067018291,0.071700696948948622,-0.035004064881801744,-1.0307493534976231,0.507058246683743,0.13951994830018954,0.75930279254573263,0.718231905690914,-0.62609839908574461,-0.7338066072422923,-0.71720444386419879,-1.7913327775610692,-0.10388486295093732,0.48019888567030328,1.4931138361860081,0.53393160032440312,0.32134542840804259,0.80403482560858153,0.01454807175364085,-0.55973506574145038,0.10864694380288054,-2.3966920527863698,0.61678125014328877,-1.0749168379395486,-2.1211224960966368,0.051934318718566783,-1.4023593373595751,1.3175179997736133,0.55335359076299662,0.11122785201788737,1.0442809651110558,0.62455942107306472,0.8771321247067787,-0.31787539132582449,-0.94688024427160888,-0.6746358267731436,0.18595573222252557,0.012779750345316962,-0.55914353455374055,-0.90973315458027548,-0.1857780422103168,1.413736414731684,1.0944411631212339,-1.0497539471949369,-0.8405440261442465,1.2386548099045471,-2.2091499564077277,1.4214577743837631,-1.0087642346394621,0.088430297383685352,1.1124872054078454,-0.79219398304486999,0.34265194007329974,-0.41295795247632205,-0.335252032512384,-1.4135564852097611,0.62144630421817026,0.94068940449122584,1.1410437999103153,-0.31773034134296774,-0.22976876826893147,-0.28397988851433137,1.1377853271355902,-0.63826746381418364,-0.29759822613149067,-1.3124565214606678,-1.460718839236858,1.7449268717156201,0.60151303119364807,-0.38631176598518746,-0.52436704220230879,0.28508812453175775,-2.6550022829871982,-0.054216722222886683,0.16103996956188601,-2.1630333291402293,1.4145493131879656,-0.61803702516056769,-0.35036410816406655,-0.27773063649221202,0.012471295049638597,0.3141356484977581,0.13873589614056248,-3.2941513577140338,0.12629564385003669,1.2140428884856611,-1.6482658411675413,0.83193850617019915,-3.5665211243946957,0.12258261412782985,-1.5727160713311736,0.81187974403010632,0.7151132115148775,0.75874831302521595,0.2647499998770676,0.17897214213573248,-0.53805392565473142,1.6057627390698936,0.11388727764623628,-0.8381823987938396,0.30188838630097059,0.45355799902183469,0.60026575981097896,-0.27208455607570031,0.47556600612359867,0.76395056269400741,-0.72478825581297446,-0.82285718906775307,-0.071052393412638179,0.77672790846887618,0.586342082451908,-0.3731566623159987,-1.4830680662301394,-1.6866812427759665,-1.7618546032777522,2.2774077366151011,-0.75554701704273519,-1.3172946909817165,1.3995864421906536,0.6812731804681168,-0.40600829427847129,-1.8543767680953231,-0.086895787565821378,0.22627646677663465,0.40107032163240414,-0.44810284474404627,-0.6653395850331163,1.4486101084786454,-0.62929012978062415,-1.1420188533281792,0.92825024606880646,0.49255716512871944,0.19376321693426246,-0.95324567681896888,1.3312543510728745,0.27769421696102353,0.3395669809608528,-0.76346432034616329,-0.2509204245998129,-0.67254785280887874,1.6792169445633705,-1.7359964180435907,1.1219641559141165,0.31146355949337134,-0.93301780907439402,-0.90602348631294027,0.59579288540997677,-0.7584044925941974,-0.44940270327587339,2.3205377972965393,0.12417279554544604,0.24309829946418715,0.11512913289590891,-0.72000150492119441,-0.082416241493041179,-1.5194151969041656,0.54542089968523433,-1.1541792474427925,0.36587687069319613,-1.0084207831639214,-1.4017145842894927,0.19343031821363105,0.52713478674781689,1.0104123384728412,2.1365438588318844,-0.5270023625273389,-0.27468821900291496,-0.5888781357804137,-0.52102556377744369,-0.036836492913558901,-0.29764372608328732,0.12803215626267372,-0.42789306361077589,0.21155169132497556,0.25573464983801414,-1.1904808471336665,-1.4091922601908047,-0.59357988843678888,-1.9281211921100747,1.0107095478123134,-0.72878654901862716,-0.23451289336998873,0.7469792168631334,-0.027268786046161977,-1.7852357535682628,-0.17701572652251549,0.73472384782569011,-0.067057967309758965,-1.9024452348421048,0.29131574729355064,-0.95804592474835115,-0.50318784795719029,-0.88015157125509524,-0.35736913745561127,-0.30845903920344742,-0.98902774079453104,-0.52099328437606029,-1.3140904302622913,0.99591604180567195,-1.5747451677088609,-2.2666080132031277,0.16203515205782357,-1.6064102161992537,0.50362450172275963,-1.0004563674938678,0.78863647016328053,-0.77968637556074805,0.75438947523916355,-0.52606040072375626,-0.30394313301065073,-0.22965176735715501,-0.85289661525230842,-0.46760637404806549,-0.15583085221798107,-1.0760200672820628,-0.50020306874373788,-0.088217142619656755,-0.62689463613436702,-1.4099468528422054,-0.65492509770827612,1.8794349389673659,0.81262204124080228,1.452510258300991,1.8773059913605428,-0.4789733204008752,-1.4930810330258519,0.44889390986939637,-0.41945236984309175,-0.42346004420098848,0.54896470779442974,-0.25502932853036403,-0.3830521144096522,-0.68036472415185034,-0.089343685359287134,-0.65502035889777521,0.98261932051365874,-2.6431877263694026,-0.88973315799268016,-0.16314333275622492,0.1144698061561514,0.94946741057694439,-0.13841691987106156,1.2239481896022626,-0.005546303494225335,1.2220918606186264,1.3213484228280408,-0.80989463492647951,-2.3533975325380148,0.98261928526732645,-0.80812589585143746,0.16057874109435977,1.2288442604492291,-0.6670984586658828,-1.8501996615441902,-1.5208543056371919,-1.433594833423719,-1.6173728267762859,-1.6258440003500085,-0.91767061378822945,0.92383187785305076,0.26203423852135382,0.61546376673901859,0.52184363300671244,-1.0358424318098358,0.66605128901350175,0.61940908450095677,-0.19123148603694423,-0.96635429908790071,1.7406166896766675,-0.15564494585546684,1.788577185620517,-0.63632546594490635,-0.57058590486517025,-0.24436173277696072,0.68350605867282399,0.32754071822373515,-1.4034377220705458,0.55298477678685287,-0.44291283839927897,-0.11847676020476314,2.5109383158096965,-1.1792199942116441,-0.33592780334933597,0.52513816454133089,-0.044248173231361057,-0.10532006758455389,0.70002454941749237,0.035059674586098516,-1.5400053656232653,-1.3208064927945706,0.62608676085330128,1.349278667291258,0.21163180721717592,-2.3423688526129594,-0.76915575454779384,0.78056048430071689,-0.12480902737443726,1.1751361238963252,-2.5462355393266289
0.49138140517512535,-0.62185235016524865,-0.59405620498031209,-1.1444812332271552,-0.16703470981869872,0.74460425112813,0.38311193372788122,-0.19726396635559321,1.042376375379483,0.3106233910385725,-0.64912329833893645,2.0346927024245258,-0.24552596095417001,0.36325457542021417,1.625185555773871,0.50831243693075057,3.2021209569690594,0.44863836645752031,1.3521388412521009,-1.8697300549827023,-0.12597143784917131,-0.68118717917707883,-0.27979783999458951,-0.34690063393596182,-0.83243655475396472,-0.13464919386704868,-0.16571918156227353,0.40586145236920013,1.2903725959354191,1.7706564083830494,1.1048608659146792,-0.91397997285462407,-0.36670051936618964,-0.52139497228604337,0.53886069587591834,-1.5313760425346621,0.017259521027118575,-1.253966437051931,-0.25705732941734594,1.7675724793646301,0.037023369818737335,-0.85145941692490523,0.53424696397685567,1.1315351839083403,-1.0653644000961495,1.3644085388337095,-1.7011631881426608,0.48385486675021089,-0.64512695932710118,0.82825407827149067,-2.0642982464253423,-0.80502837400801908,-0.64205731269899347,0.9375070395628331,0.34794505158220307,0.56183403650084096,0.064580950876727244,0.49695870682817883,-1.1832329434061133,-0.38452658770739229,1.9465206231821397,-1.0178613844740112,-0.90795948626980627,-2.0914230472242767,-0.32364100658938583,-2.3576324548431344,0.10952653537944426,-0.17267133173561433,1.6251848062325605,-0.24447494934010622,-0.81226413416037158,0.1975568195511091,-0.32808085773453649,-1.2140453911435349,-0.071977764873981123,-1.5930071484706281,-0.57264493805896288,1.0654406869833315,-4.0421148380224832,0.018345317003219997,-1.4281774763554682,-0.19920090780537097,0.62838592909861579,2.495023234416248,-0.66295663331936427,0.19868538180672854,0.45301420623967581,0.97294784893291497,2.0964711259631592,-0.64084526726457314,0.028107156524225949,0.54888466207245867,-2.2354674547326256,0.24563848104620556,-1.5187012419979316,-1.2835411748194345,-1.0015031952453692,0.99279721087306583,0.45204048799475011,0.25804000620895162,-0.41696783191479958,0.20408361460776467,-1.7800977361134336,0.93154408713283032,0.052784027190811413,-2.4217690845146369,-1.7621642522736158,0.374861667861008,-0.55045039596269607,0.7616864666821398,-0.048273615685782686,-0.69446304941981252,4.0084508818883453,0.22865512634401411,-2.1394411847701993,0.12496835041373312,0.07690549399950368,-0.15336794131590012,-0.38662336694167149,-1.8005669997677307,-0.17676449798285671,-0.57066232417707208,-0.25154283088491075,0.31719352701284159,0.67309298687136165,-1.2742774687801566,-2.537441894467678,0.11370783308595231,-0.10888091360286883,1.5859053196224362,1.2229173507343065,1.3968346033332328,1.8768679357877456,-0.050749897341542324,-0.43263412692346676,-0.26230239169510638,2.2502264385952659,0.35577067805692147,-0.31315268776715621,-0.22609847672321151,2.8309629062010306,0.5601512821235769,-0.14608663996882801,-0.030373601362311289,-0.27444659462098225,-0.41163467846496338,-0.37816912197612385,-0.16914611597813603,0.23002330472671553,-0.57854509166543255,0.19213653702639166,-0.7553491381289974,0.30454806505940185,-0.26366971754080071,0.04995786851224663,-0.91144433421560245,-0.015639350512409569,-0.95294860325092323,-2.3759538717734272,2.0160117326326885,0.014197283067885194,0.7961979265544733,-3.0479958114310568,1.2155611621725984,1.5162770246249067,-0.78247931269594573,-0.52394930114579918,0.28855402255760138,-1.1908218229912708,-0.61590206889152488,1.0553992082050259,-0.49428352510780044,1.5660909781860985,0.023478541171742605,2.6336261976420317,0.76189687112805371,-1.2693515968509181,-0.44131739683872817,1.8941562755735606,1.4210104223190192,1.8274063293623333,0.29466638924818728,-0.52722542898697755,0.38661518010905505,-1.4111374914170649,-1.5362414274316187,1.3451401313528961,1.2753691159124954,0.14509833393944152,-1.9364009106554054,1.0564016410530128,0.25845926642246353,1.5770777515802503,-1.636935749168354,-0.55152141733222404,-0.68767475001044587,-0.42420147001732789,0.10095252129972901,0.86412598907070548,0.52255624529150946,-1.4658683449335157,0.96799450306713697,0.36713732407102717,-0.70586538597295889,-0.53220782597586702,-1.1681989731503717,0.66872662316855935,-0.72228247858478034,-1.2831490578563054,-0.58322570232628757,0.5117731027466127,0.64452572790415219,0.47059769670160584,0.82488181577698172,0.28296757983206083,1.6012665466903453,-2.4947176588532489,0.82927622107285248,1.4213870575983125,0.90503886078790874,-0.69702925396449278,0.14876066996830048,-0.1130256191828435,-1.289903447090532,-0.70645609822468547,-0.017098121379053071,-1.0540333123409653,0.66429922895593929,1.2581910766751983,0.060579784820742347,-0.21586540986535424,1.2415277382382173,-0.53681574438742496,-0.9086652567482747,0.067750313648003491,-0.24725317708279965,-0.1116759541841634,0.6367135728922847,0.47298909104767128,-1.1424351183174053,-0.15110679027565702,-0.59175645545205924,0.437778459625349,-0.45823937807418985,-1.33225601023615,0.27177256353823631,-1.6229456820635506,0.73513805737080806,0.03489236299988567,-0.70862992185191176,0.89624671462495353,-0.51351984955926711,0.37788801579810133,0.84677690805924399,0.78314188243904115,0.039716743153863608,1.5153240038295583,2.1004106852105999,0.089384464595705149,0.12729498243273693,1.106670434626138,-0.51683098750840994,-1.0580305890458519,0.32182489866381719,0.66001289896742976,0.58796054696495847,0.12207722626588433,-0.6390099568688663,0.25671310708228084,0.40593250759052096,-0.5521242357869236,-1.8240514462290505,-0.78206816890348996,-0.20582087485172648,0.71839317773254052,0.73385210910583565,2.9287444222827625,-2.0481424481098949,1.8878669987500416,-1.1312255382534753,1.4301280506396792,0.29522965041127786,-0.027550181893749484,-1.8801798564106535,-0.80757330477422662,-0.33710013577363401,-0.78532653045842926,0.40000966699649643,-1.1763217533581556,-0.17179297730311877,-2.1806562597863079,0.6466800465946887,-0.15051650155562907,-0.18722679019140528,0.59283405845156967,1.0422667926070968,0.29258106372082127,-0.24148642306474727,2.7530546488289747,0.54479185232654226,1.2584404167068248,0.46745814799991053,0.70011461541842002,0.17246793370909264,0.9061476954186134,-0.73982976250234378,-0.78076988003739101,0.65028981716817624,1.5403034421234969,-0.85140689709315787,0.37327890401727898,-2.0020136916934215,-0.28835980537039008,0.29154626148292512,-0.36722718467518167,0.2369373867071782,-2.069246007793542,0.83386399209734641,0.10988902875948428,-1.1533990905981728,0.53083916617016902,-0.14965391042989071,1.4760732946603368,0.37081742156074049,1.3684475529193874,0.059883858708276796,0.94994407653770629,0.18003372741135307,-0.15433694297309097,-2.1412361529591157,1.1642086214927281,-0.65529593770884786,-2.0115017797308958,1.200923384514329,-0.51817249906126639,0.86297461840685319,-0.1489339187403034,-0.46354323848803985,0.62591641988180868,-0.096174945425429204,0.53535700495756755,0.28823128396207665,1.0117869354226876,-2.5698862773751738,-1.5424556159979934,1.5436100893726183,0.45589052449523865,1.4205152596554558,0.64543678693442519,1.5689031995106975,0.1878462945011885,0.5248318668788885,-0.14501994636829663,1.2234542164348476,-0.94520375558059544,0.54989334171543824,0.84805194829672714,-0.63228870630858547,-1.6114956844959532,-0.63039087601362787,0.65866904632348311,-0.018471917995811157,-0.049786898969817056,0.50194133139606556,-1.7473161338715968,-0.022798382304943649,0.52623967008253381,0.53575684262763834,-0.76851526720217411,0.82733882030254924,0.64815037644929063,-0.9785384955868649,-0.21115052601872514,0.30461655403681731,-0.39155210664666362,0.43489603291091228,0.20419158995471393,0.30586970339768582,1.5241891116237072,0.32310779898257713,0.36537692346339035,0.24065618306955688,-0.34402899263905307,-0.72236964280376714,1.4658758364009785,-0.63860654089442048,0.53015609078059567,0.53121230418259813,1.9746991824372566,-0.90857500117095724,0.0060233614633921741,0.37707519019584623,0.12083958416525629,-0.5916824615269296,-1.2640897696897546,0.038879385696507951,-1.5070740362117021,0.13261892121413851,-1.6053926111547623,0.96205819882504873,-0.26897880268482599,1.9060002843068087,0.10207434141439729,-0.069763492725999465,-0.11827031691918893,-1.1812870237229482,0.096283140584084728,0.48148385043969311,1.1084656168893396,0.079353247626746379,-1.0412521807963588,0.23450588846023523,-0.76504149965903201,1.4804628580027357,-0.63750836339598382,1.0246485531162739,-0.94001869470836885,-0.40983019806832482,-0.60280482687383452,-1.3388911673645045,-1.4822685409281156,0.85746013243059105,-1.0846219068072909,-0.55474762939790634,1.937716658620638,3.0576273160781144,-0.023829997159318779,-1.2703852297999023,0.93982990488183926,0.6056451869284839,-1.1683130997961924,1.4748124931537776,0.044793765859869182,0.18670358185187697,-0.36490442845679666,-0.20166003779495503,1.7194583185896744,-0.41385484971740211,-0.93033903520159367,-0.31971272607789869,0.52775085222069718,-1.4207889483535876,-0.36422538495064793,-0.19530226123771899,-0.74042940509076294,0.12260153966899326,1.776470203243246,0.27376441947536778,1.3567953287210728,-1.2981567475520468,-0.95755594017063228,-1.1328370114101276,0.086113587131997391,2.6016566032669157,1.81961153306334,0.60561892962445329,-1.6887201237495073,0.15137704513090691,-1.4147031670239421,0.12752906580910453,0.9458624367559586,-1.387583923098076,-1.0452977991306582,0.093192613940663124,-1.1062451232814081,-0.58778957917041041,-0.91144767138184557,-0.16014906848173927,0.063673305502797178,0.25164355643496605,-0.9957133249116209,-0.55326754837152192,-1.0079906133192811,-0.91598740173449134,-2.0022234966081549,-0.22912162811415876,0.72687553198268484,0.059397256059983791,-0.50647515206092952,-0.26458554970539455,0.30355574850993,0.64169308938016634,-2.1063120982030883,-0.010547934570294803,1.3206406514712268,1.6142589416423023,-0.71550268409175932,-0.37698141427748016,0.59866981124508667,0.63297940090148841,0.41621613974134047,1.9504742136517423,2.0544914514827752,0.28798887772893539,-2.8978153748743543,0.81632255620447991,1.4032977287805728,-0.49895563069912119,-0.73528496480825245,1.2339826335257909
0.026273895942118434,0.81951613938571555,0.79259257271700434,-0.26965402580897291,0.75444281226365539,0.60678375096501869,0.72865676364190113,1.9585599348603122,-0.31267290347173576,1.7007021844542534,0.57668487486465281,0.22869221812096974,1.4515430534651765,-1.1696314517234727,0.4012114372285171,-0.97363661064231966,-0.021292952232944147,0.4081597937399784,-0.57975404391918817,0.16757950410132938,-0.27700584788821753,-0.34865128326246969,0.0052136171870710499,-1.8623752918169707,-1.0505482648488218,1.3195223320219998,-0.95794868852255199,0.83671989720468243,-0.93076215774093141,1.1226342550533106,-1.1790713873105709,1.0484981716464261,-1.3416290702005231,-0.77254838103995715,-1.5785454840025401,0.55444749363864165,1.2308586630055827,-2.4980411616902103,-1.3262967690569114,-0.037504666767262239,-0.32005125610129054,-2.380490104820594,-0.62138677002413256,-0.70361074592255113,-1.1481983471124908,0.011533417283066011,-0.79809415715400023,0.34227076795100297,-0.35572085422661176,-0.95197683692298629,1.3747017460203479,-1.0685685181850046,0.32284853277066988,-0.93379969897930759,-2.5096750922921629,0.028158218212068015,-0.56967861570224554,1.5132554277938497,2.1176600310633082,-0.51336110090816056,-0.40693417286140643,-0.98384153285029285,-1.9759038000794855,-1.7036834470694358,-1.2501854528622351,-0.91486345437700511,-0.54332692972496988,0.11844942679164897,0.18119292931875597,0.55604463596442877,0.46688459027958917,-2.2496053977888799,-0.52826735870588659,2.5825446141596893,-0.3039828743285356,-0.076482523436021341,0.097306993777541068,0.59723525205086947,0.8003711060131441,0.5146118528350706,-1.1537307355041178,0.72334104947268807,-0.22377607032926566,2.2402410946810232,0.61813220447221651,0.8266973256720539,-0.77520782693548762,-0.86454018790285125,0.37230234169367948,-2.2331567460788189,-0.76306410172943728,-0.083462913188007568,1.3371665909521322,-0.13212932085040177,-0.029425892117683528,-1.1369958925951438,1.3217639078636438,-0.12396273248791827,1.1404958909096097,-3.1376959315890618,-0.73231079183081649,1.2908171436918929,0.018805780250364498,0.3051174789275336,0.04241809318154454,1.4741457848684811,0.18213711367232444,0.31088272230324132,1.0351833265649617,2.7024501499164972,-0.067056618802987494,-2.1997822750938254,-0.69647284000130372,-0.82270932427145793,-0.4248524610332427,-0.18546445193144082,0.15864552725563713,1.2964709500520784,-0.12460535750026185,-0.42106561148164606,-0.2194120906900274,0.74017011097288088,-0.39994217903978962,0.53248774467420468,0.58360240088709125,0.40545129884646475,-0.60746046556520072,-1.0186672102852563,-0.96217560452086848,0.16621084581172288,-0.7148617546244318,-2.0593646231355605,-0.53679532592165435,-0.54012169367539153,0.58162118924745521,-0.72938898481018877,0.94728058140723348,-1.2716235432097702,0.48596726985780192,0.17791889350693746,-0.13745927356686732,-0.21655932302363703,-1.7972948908628501,0.81238246939224834,0.38334890394008575,0.41986311457225584,-0.469090490798173,0.85942332551978995,0.8010012127589462,0.15960579474847023,-0.96762319903820837,0.49375105967824001,1.0614702441588475,-1.7861077232745146,1.5316385110868724,1.2113762109826645,-1.4477841360352237,-0.20555879367988361,0.066671221578105802,-0.23135165054680076,-0.15252860294325463,-0.2328508683978377,-1.5928838140460204,2.2271489621832545,-0.17662720063332885,0.43066807720829547,-0.95621501040604284,1.0478050191692905,-0.17940697513746687,-0.19576523284873651,-0.43179161470364857,-0.44786774575879745,0.99539140841368468,-0.88747919969276468,-1.0315705131407602,2.9211087817265811,-0.98837288649886212,1.2977440802987303,-1.4367276700161333,-0.50715644257340153,-0.95251811524642072,0.40827846633233494,2.6607373667309737,1.4625558662977607,1.9321122419723524,1.0513716255994998,0.27966983174194066,1.1070443371380625,-1.3403798373879392,0.22846577239121271,-0.38656645133165329,0.23929962933293025,-0.0092812867076415111,0.82835254399618474,0.38005104478025675,-0.16463957483678818,-0.68305365372029958,0.24704027755503358,-0.58325360298307616,0.47400164420380347,0.71520297290602219,-0.27181329571890567,0.97622019930663029,-0.25352265592853312,-0.77264934956992004,-0.096063145092817881,0.75660107202933613,1.0346435792701929,-1.0155231378729253,-1.601978377777711,-0.025783454270190485,0.70066459707070972,0.18041006829264059,0.70793395478563292,-1.7251121449374667,-0.71422062061390168,-1.1679426098884036,-0.18811100504897302,0.16982941239464186,2.0079656237938335,-1.173783785958312,0.2978473803898693,1.4012399098902026,-0.18585236622563442,-0.28848007280953519,3.5965251252032897,-1.8005994495120348,-1.1364915027751756,-1.116161708096516,0.13211503124134086,-1.1472943933216002,1.050665017109718,-0.5493271407144481,-0.66005664890828553,-1.0244485053968027,-1.9502392366006815,-0.24479323967625574,-0.86469637674826261,-0.022533587910576452,-0.27803557511086219,-1.7866953729786563,0.24815926635272581,0.19806857161300906,0.67466993603289316,-0.98114689024565704,-0.24575076213307451,-0.35419960953681223,0.26670116386462717,1.2195786168281746,1.4867140373736605,0.45030153240999998,-0.46433328344902625,-1.7705686288231575,-2.5808681540864802,0.30745160575890118,0.71064285434504715,-0.10764839883827469,-0.24343109570879065,-0.067456319202439066,0.68463589199509312,1.5614927763055235,0.74797713676976585,-1.0345644639760119,-0.39776494716145055,2.2278129929817942,0.22252556700133838,-2.5319515743063734,1.8315195823703392,-0.058712475731143833,0.61273402623176321,-1.5216084301215687,2.2152305527661795,-1.4039071740994054,-0.20764069485045078,-0.65038318600721778,-0.25939515042315231,0.11066597805084823,0.84330403010141008,-0.18864037748316381,-1.5675740466512467,-0.82132560263532384,0.83656062786165353,-0.71427728469000917,1.6897604083393538,1.1209191379745822,-1.1355856549351753,0.62319297796131812,1.3734542136203698,0.59909888550435264,0.22786811899432882,0.88898392470850762,-0.34000634094436072,-0.38088001826341206,-0.73878629219581005,1.5292735834317388,0.41061651302692703,0.63399472212977903,-1.1514561580801508,0.85061508989409873,0.044816327207869579,0.79219465954703394,-0.77089516731901342,-0.42026058969628138,-1.3537161091481009,-1.293480810698088,-1.7774656841255159,-0.06532546382965107,0.012011168058206276,-2.3715215459423979,-0.10150800283177996,0.038164003277827666,-1.2324846000144578,0.54924410176339178,0.52533262658510582,0.10957674203983828,-1.6419183132606168,-0.95763056466162499,-0.031487060662677077,0.42614802186748496,0.35019228474958602,-0.82332211439546277,0.78485184558736187,1.9296824090745943,0.31932467403679071,0.90501055900686256,-1.3741694600708814,0.2340667046911496,-0.51388541098804741,0.75168969142464459,-0.69288987003680791,1.0681067162033955,-0.5013881765570255,0.7827820688126873,0.49623484752902552,-0.86629525670810492,-0.75231160300693578,0.74621255017752264,1.2088227516545862,0.45843111553849891,-1.1999183875761563,0.44061031509362819,1.3446592897941851,0.27586132830682236,-0.13226620833293581,-1.4122918830743627,-0.59372798106840319,-2.2516572510431141,-2.2519886106350389,-0.39960698825320012,0.38748327134345212,-2.2220712429335405,-1.3373864605207531,0.26569909506392575,-1.5210901744996701,-0.30553294261052666,-1.0149500844345585,2.0141659951589168,-0.9589334694790933,-0.68107483402896485,1.092625294751379,0.24943039305365003,-2.3969338865326315,0.24726084073971594,-2.3996648893179535,-1.6509153486207391,1.104903294518643,0.2516057561122147,-0.33772513611220045,-0.60519670917604451,1.4321314021066849,0.77909009785021377,1.7607476728323586,0.69699523356627446,-1.0729815337144917,-0.45832892441530215,-0.8163072307019319,-0.12536531835952885,0.3136456830635026,0.52598186739833042,-1.270509882343293,0.10507800176395474,-0.72636463612289037,1.4373132797879753,-1.0344770193981234,0.60206470949697621,2.0493699190836336,-1.5216373014647793,-0.54941586314759894,-0.52188910497097052,0.2005546079234386,-1.4318187800401734,1.2400548402552694,-2.4498112535670789,-0.45658728547440863,0.16453485817297525,-0.12777155183124092,-0.014861933585242248,-0.33222905497510613,1.226870922023261,-0.6430843579438329,-0.96422977646029429,0.53977501452070542,0.56704662822492991,-0.2607598083072335,0.10616466538691555,0.84728459380714949,0.64889727163167887,1.000609633689862,-1.2687627705731837,-0.1379264051112559,1.3041498491979491,-1.5912230022504141,0.6905354513659645,1.7604296950339371,-0.098340204975961049,1.0973328208390565,-1.1050508123658542,0.43834600261046491,-2.0704747390828189,-0.41639864799211823,0.03364558799107132,-0.2209198287583348,-0.48135915730765255,0.95397701366106158,0.78254250352645371,1.528145613364607,0.77992268002883924,-0.17390260111118383,-0.042409184528310967,-0.38686170727615349,1.6409705401384946,-0.49622231248120985,0.27598355872721808,0.074293613231531594,-1.0896355359821945,1.3047990647865129,-0.83611014321666521,-1.426845025444005,0.2650106741990631,-0.39546497545525666,1.2818389033211406,0.77503617327434726,-0.056510634346984209,-0.16305393034196042,-0.059572669381307466,1.1380099060828581,0.1369452346521374,-0.64182613796078647,0.18202829671691315,0.18062952219549397,-0.33963644235416174,-0.44500448256700176,0.46686469989284651,-0.29624625963317563,-0.76083893449230688,0.37918205849648179,-1.2558335135371346,-0.72551031119897791,-0.37639120378874874,-0.12861989563504433,0.48006537708317953,1.3178549688408308,0.59733219490742917,0.22368994036730508,0.61100075615848792,0.96930875333163802,0.71805690576677328,0.84110281465785852,0.38695609369816392,0.20819948652791587,0.041836048430885793,1.4348312008636865,0.72246590226016805,-0.22907666594665643,-0.96291254695723494,1.1299831585950131,0.92607658734827258,-0.83900885088419674,0.87279560592218575,1.234368889876903,-1.9246441131763832,0.23136114833571075,0.13423541724904259,-0.2717910189552033,0.69161197274510933,0.35221542037827813,0.79177381476263164,1.0176365396853881,0.29633040874804473,0.17590623138398828,-0.432407838437595,-1.4766015649173254,0.073193632403525402,0.066143331458231924,-0.09179934062133778,-1.266647425568427,2.242278734316649,0.4625101950486244,-0.40930539957421153,0.99330258556851325
-0.60181104512884798,-0.88392506596560594,2.3565824015294066,0.50277234301533102,0.8554224544925304,0.8243093014773103,-0.36437153867720423,0.45587022246823145,0.81195637431932643,-1.3280321596037237,0.57988548790200134,-0.88585209669504872,0.502957040542378,0.44758404472706548,0.27764047055827662,0.73242605380660286,0.11189925799670093,-1.0550282788293395,0.012353192084488368,-1.0319066145354696,-0.89064705747672623,0.044769391404202372,0.092351738024826768,-0.69877202561137008,0.30827533187290362,-0.11336663290491752,-0.63886019049743215,-1.0564353189741795,-0.51512996022215929,0.76441944788661964,-1.2940764039598058,0.3654637796876597,-0.44337319991208485,-1.0799211702140159,0.38192184610228197,0.0012228613087323413,-0.52504912419641225,-1.1184826358691344,-0.45807727460189923,0.47699318015916486,-0.62403767634059781,0.77123570358353088,-0.14429665869227193,-0.55340751924877352,-0.061523611906789337,-0.23718233498315391,0.79583603116328105,-1.448534743626321,-1.7443323562634168,0.77949560371030735,-2.2107927038030706,-0.4102276369490202,-0.82798547403316636,-0.62540565358285372,-2.115503387020194,-1.198681698518093,-0.1886864772897876,1.0990667941145169,1.2108016082384208,0.20296327124391841,-1.2271387346993605,-0.45772659183231534,-0.40726863024916388,0.049735432704995475,1.598825095120646,-0.6818517694980718,-0.8181333027584855,0.23316428441163414,0.55829646438220792,-1.1062642150492279,-0.97745184236697558,-0.31901812901438714,-0.52079354267535805,0.36922514118047139,-1.1910323728601899,-1.1385301097655631,-0.010059499770138623,-0.25262300461612419,-0.034423777307022632,-0.41858869159274131,0.20223273208476319,0.12308441664137856,-2.1110204855589267,-0.19902098140911906,-0.57399136947258067,-1.9030612192250467,1.7844101603533207,-0.81455457206946258,1.9424552807290232,0.65074740360555361,-1.7695612038044715,-2.5108811306421521,0.37838281510037658,0.92041860948688037,1.956421005456239,-1.8394120193050811,-0.27523589806368576,0.74138680686307168,1.2928389053120029,-0.60434912828672671,-1.2241314214095473,1.7644445183581428,1.9828055026308806,-0.10180116502800711,-0.11323641481261588,-1.7378499012065654,0.91967176741365042,0.27640386209390039,-3.0722069812114641,0.39347109105044453,-0.74422448234608207,0.52427463644665928,-0.62164712250580845,-1.5772045969975674,0.3666803851437731,-0.48326453815224513,0.52661319544732377,-1.0888922214140111,0.41314964566015594,-2.2538669484535516,0.69367605289677181,-0.37965106273235383,1.4593112763727991,0.01018836069200714,0.71051964981059756,0.75473388131912356,1.1571446432074446,-1.6197874310086458,-0.034214032134524106,1.2987619125875129,-0.12609052589348002,0.99621036840397059,1.2279379695208839,-1.3673754519913965,1.5820642228229915,0.0015317868007099522,0.2422154899821555,0.0025792908826677138,-0.74356843263883876,0.51466952652056697,2.0782707171486305,-1.0026736282083277,-2.2274452717164812,-0.34932755783661346,0.7713573721041207,0.41727975187369859,0.32450836147732481,-1.0161261693964905,0.41037578003196934,1.6676230033844679,-0.99801989618638132,-0.53998346539323361,0.06320319107900782,-0.68128385913265277,0.068099782190501612,0.94483815919804615,-1.4612531764389283,1.595670593296777,0.21477771714433061,-0.74464953370729503,0.97675004441390889,-0.83203306012036748,-0.092169192335924535,-1.5057908981467416,-0.25188486333612553,-0.69039664257745503,-0.98845111468641511,0.54767872250131577,-1.1361569180789071,-0.85522149245316914,1.4618076040153289,0.46192911252719648,-0.064988937066064636,-0.66843148496144389,0.13287553114857337,1.02487554831283,0.47384038189369632,0.92810931437511279,0.53995443867485093,-0.52844515761630928,1.4031099225350616,0.53375810036858451,-0.30796784304962882,1.4107837542749906,-0.42808636810839862,-0.66584141503968364,0.052277722240640291,-2.3676452852752101,-1.0810617266256222,-0.55018931849043295,1.6127594592143382,0.60058385311763229,0.82155464373117126,-0.047246754620338789,-1.5455906617333695,0.33182948301548709,-0.11978077080787264,-0.38228218959743548,-0.42797036535468369,0.53505586811745143,0.89520755166898802,0.94187973659656143,-0.47652849245171719,-1.1044701794584644,-0.61907343132841453,1.2136844377905207,-0.58810238585953456,-0.44898480208718033,-1.0424286407508525,0.73978321705032102,-0.73766901965721343,2.1796429016576639,0.059106891134947805,-1.9341929287784576,-0.93942752768103366,-0.34819147432025471,-0.28490594663859947,-1.4431487217827126,0.032270730259742357,-1.9151007142473182,-1.2349835772854765,0.16815247333216846,0.93681563927975564,0.058441757578803669,-1.0498405978464196,0.52050265054325628,1.4290443095272678,-1.4318572518834658,1.6490537989981928,-1.0759314993211033,-1.328793677179305,-0.23676808680595143,-1.0332494795487717,-0.45285788056555865,-0.29643157680905802,-0.85351291934129714,-1.7547156064533567,-1.5309277402331731,0.95072946387185953,0.22585285984678552,-0.0077100418793855287,0.63772221224416592,0.13309016700999296,0.85379853382948878,-0.64744973351821178,0.23321696361289335,-0.846590457942765,0.64634918260840557,-0.42824966583885593,-0.66209407050255398,-1.1769532068495128,-0.42261421861586818,-0.79589201195553472,0.11077597747026002,-0.38620501520267109,-0.3755631376305989,1.6870427452632628,-0.5215112119669898,-0.0072486862386095417,0.75547822331309011,-0.95284990869040931,0.38722899404022854,0.71812259621536256,-1.9697794546487086,0.78542514361832094,-0.81420804844145123,0.91287446939281092,0.21948977323143926,-2.061805736665463,-0.9544860895085735,-0.877472596663043,1.4788192000475395,-0.63047137162591527,-0.21002528178139898,1.5976353297514072,-0.091654773110663806,-2.0094759552060313,-1.8025071298379169,0.47602852400507961,-0.62400726517855654,-1.7543087227050387,-0.55790390552110558,1.9119336184052833,0.5321246178319331,-0.6048367386608573,1.1664579832555486,-0.52457342142738028,1.817481138870354,-0.17069535259108545,-0.15320749409244488,1.3445037474513224,2.7008719915134112,0.59308963305441975,-0.92107204261660292,0.91334668723775914,1.3075954183674212,1.0828852225514538,0.037385727539824158,-0.1904279084639173,0.81556672096573457,2.0238899753099902,0.19305697671536612,-0.0031289733503813534,-0.24473423761190369,0.14351036914195173,0.199930112709856,0.16340511799948398,-0.15637941157888968,-1.0663304072636124,-0.13348016873139626,1.2424841569637979,-0.3608879441468138,0.57816320157513967,-0.61358963029781921,-0.047776740760558996,1.1509933597248023,-0.16479040972750431,0.92696852084851034,-0.57133576128872987,1.1976544517866077,-0.091221939180740938,0.32203293060721494,1.1201111579780887,-0.53473568173438502,-0.261817828989445,0.40410062255387502,0.87076283883604844,-1.0750690699170824,-0.64853611931457078,1.2768908036853293,-1.3492253189572385,-0.91447235514372771,1.5967020207865732,0.87804337944304767,0.5984509997212395,1.4451680286936797,0.49250922560133237,0.13564681366705969,-0.19369879855045596,-0.94860330953892358,0.22900358905661247,-0.8417502615301371,1.6833227700512656,-2.2188250367181821,-1.0109946294356555,0.58569893650935101,-0.032608078253856053,-0.10353506076979513,-1.2367395293818142,-1.1200605148672456,-1.9464959214582949,0.09748289018070351,-0.35412011129094101,-1.0673045258556613,-0.46450241876303677,-1.0771877456231633,-0.89176534806765007,1.3217609265591841,-0.028944705167954797,-2.3754499886926288,-0.97644629312015141,0.92772656361369998,2.7849081941272393,-0.31923452577124262,-1.0832752208768386,-1.5699929686486338,-0.073627614676728501,-1.7702225748348206,0.48271148199923397,2.5582474438956959,1.4531130669695926,0.41803601074784436,-0.85465553666982663,-0.41824534532700597,0.1389907669666364,0.73110651666274895,1.6129203188451653,1.4830364089868022,2.4261107957409016,1.1729829913214849,0.59972491032387298,1.1444650359539397,-1.7197335250125445,0.34920873797022567,-1.2257308826256283,-1.6043049854041389,0.059867793322662288,-0.14281864548803103,1.1959826482496396,0.20074542644523571,0.76606060429942191,-0.48996357585624389,0.21598742025956036,0.52021734149292342,0.76644863854492062,-1.1131403548891037,1.2472088334615743,0.24932499640475714,-0.0049489070498138698,1.3009998892774768,0.32896601525497182,0.34318500699335214,1.0039279603158948,-0.06174750557453007,1.8362403593744507,0.98302257439774265,2.0964783056581009,0.76488864171903626,-0.68786594055807782,2.3185615688921577,1.407881951882928,0.60690225486026617,-0.21535988752853097,0.41291183259511005,-1.7644305446110835,-0.73360459780260334,-0.63834452067120706,1.1561526314130037,-0.86440065883942196,2.148677237279585,-1.2250887781342519,0.55815356497784652,1.3262503319821031,0.29672457649723089,0.26858730011159121,2.2309373637582124,-0.79516914936155569,-0.86419383227744873,-0.69812257086767815,0.13396226019025506,-0.51466030515067129,0.99962979882209013,0.19727396051703411,-2.6150818036610737,2.3646310854246431,-0.63745050747222409,-0.16109339683302965,-1.8567017216441442,-0.6386743827494693,0.82270175088971509,-0.70868082436665558,-1.1007291177923209,-0.75808063240892831,-2.2777079126297766,0.85960760010137582,-2.1196708691211095,1.0950253079933316,-0.37613590786116075,-0.75985221416626558,0.22142838479726309,1.6220162129293043,-0.42041560224628455,1.77815909212624,1.6226950207671904,-0.59894119287241487,0.30321844743152726,0.33831284259396777,-0.61976435330752755,-0.32993492936720437,0.34596625722286167,0.40064462383640331,-0.52796726897460555,-1.5782189812583942,0.55211651507169623,1.5072104691903829,-0.28394474621905719,1.6993146089734859,1.0950295603180615,0.6234996931567276,-1.1631694073849772,0.21340108418752876,0.71287297960078944,0.81555519275572941,-1.1408738781022931,0.031915610169704685,-1.407384070915116,1.5593983011872541,-1.0530312737746832,2.2573586023332726,-2.6595235576488645,-0.52539975977409203,1.1402108613435666,0.88901602656036793,0.42821521826015008,-1.4940679911110386,-0.29296988815150982,0.17143130953866983,-0.24895575574147638,-1.1126756952266292,2.4420392197639287,-1.9312398726036757,-0.72211954311731652,0.33793991432127685,0.62892553765742665,0.16026162143944728,-1.1539606824951407,0.45061539123598754,-0.28370623201180167,0.34763231307258419,-0.26922799881658377
-1.3989101243325581,0.76054579625004126,0.96456737135935933,0.41350006990121557,-0.09920989331925105,1.3532952448543916,-0.67642053487322573,0.15805814549210528,-0.86654301899735764,1.2182593075897599,0.84797999453393802,-0.7290050380841806,-1.0225406647365693,-0.62922389443552817,0.97998269970588281,-0.54597252181132494,-1.7869777737469563,0.13145048757747799,-0.62577876304373847,-0.534590574805478,-0.43926190512033331,-1.5477590297846973,-0.83382725218658227,-1.7934022543517396,-0.94976600373032249,-1.097638244400716,0.67005197134947081,0.62620629813050666,0.91680519025706431,1.1676691038703186,-0.014382429014918882,0.35654741814353874,-1.1409922023510246,-1.8058227927978232,0.14091336025658202,-0.92854254006312908,-0.78494493768007878,-0.95847965697987469,-0.089561787368409182,0.44494919967828478,2.2464112129868856,0.53462500335122976,2.5741047777738868,-1.9140016261956148,0.0064130513962531712,-1.1235243357851379,1.691498959361551,1.0628220400339083,0.26390665361520815,-0.66023558489325007,0.083963514910361692,-0.67382333204346523,0.71116968473817677,-0.07457374389513971,-1.9791024166454967,-0.87882819718572547,0.20720245081032485,-0.41477104340224979,-1.2907182602692377,0.089072608719844112,-0.039788844236350061,-0.70667128902575771,-0.511990426780907,0.90998324761043636,1.0162829617369606,-0.45015434118120112,-0.2407571247356374,0.12110192610426049,0.45414467030155237,0.026275015678166105,-0.16586716268206944,-1.3156925002107855,0.91131257425294043,0.82503229968217251,0.17388449983890159,-0.85388503741770827,-0.19005457428331582,0.37535659964868562,-1.4306106450944867,0.74190574219793093,1.312487505984641,-1.3136056132014926,0.9751790440854019,-0.29223153587644679,-1.563392441312621,-0.75455406192720309,-0.22257957015576851,-1.9898411233894076,-1.7408784788972029,-1.3872589970676532,0.12271368753059438,0.040698249660169709,0.24272135115929916,0.32992132935846363,2.3710974929772597,0.26907721120750455,-0.4881891470692053,-1.2004071783870602,0.56397796791054666,-0.56977910529594478,0.10454245955862151,0.7523621000924231,1.6569448045864978,-0.13640275445329547,0.82042550558965677,-0.047379488835873292,0.33047116700304258,1.0858545279482048,1.0995575591089228,0.57345743475222954,-0.31591949070695285,-0.71255980681522135,0.11855926864950003,0.44147066562736509,0.18364635443434374,1.0041696074181461,-1.5041990354170107,1.8442945755571489,-0.012018048466612587,0.62191064742838764,0.68782718636040596,-1.0546296344195327,-2.4829176759403713,-0.19579211580044925,0.069512946055950334,-1.4656351714664875,-0.84236478957741356,0.36349896132803078,-0.40567850697440005,1.6998660401174424,0.57211884916186662,0.29067184383243994,0.97655864520782776,1.1811405114606632,-0.58821453822193648,-0.61837602761287402,-0.69528202806895356,-0.16797004667759544,-1.7760540854615132,-0.3499684264432974,-1.1218547028039645,1.9323635598429909,-1.4556696727777796,-0.92437994995520034,-0.78813160596792808,-0.34887892368178824,0.43533452147921664,0.50882674254405635,0.99148310599296219,0.52058704542365775,1.3946637098991079,1.1740851077257823,1.7770579674823423,-1.4624898013931709,-0.37211128550091077,0.13236625959639678,-0.025411398742442585,0.34446806334588503,-1.2465286900171582,0.89907381239794737,-0.68468837484535905,0.073364331650255854,0.62737618740322354,1.6425946181778852,-0.39993352689731709,-0.84123014214668856,0.084574158744266562,1.0753848613758477,0.7966210149714793,0.41290919834619827,-1.2989679415113986,0.015017040088374354,0.49851670942606946,0.87557022524521433,0.61527578632351609,0.73202485527423766,-0.044531169765690597,1.3866718702778456,0.43624377440620765,1.4576256305336686,-0.8802537944710751,-0.80186661874893705,-1.3358238108929099,-1.6835226845192079,-0.70423854900396532,-0.67429392168299129,-0.40439399489022565,-0.24022532974971572,-0.98246276997365956,-1.576221101331688,1.0114931090308659,-0.74777413566890494,0.40950343347716522,1.5715346017497773,0.89419754431524889,0.2251696497787336,-0.0912871109767035,1.4259253225749218,-0.75805138502828429,-0.13486788824487264,0.13774980221120928,-1.3913794348354183,-0.06034333499502955,1.7659955716832423,-0.53334776954089969,0.27764940785959552,-0.5641046794993112,-0.80292453826105437,-0.76879576047542497,0.13327823623985657,1.0250075090540089,1.6188546908168897,-0.87179182499452856,-1.5025720747267477,0.40370760198781158,0.29537556873981757,-0.10426431166600029,-1.2525575310609955,1.8271908539818225,-2.173592327081312,-0.011833113121293251,0.21474225691463134,-1.818715356100699,-1.2484579171982824,-0.52254678263332344,-0.96015759746146068,0.12492289621255512,0.49215355380042758,-1.6232079460343174,-2.7580798663154975,-0.79280524193406499,-0.77350144307252766,0.32049159633259217,-0.57831756687360802,-1.1438307639673961,-0.0092512626934361242,-0.25628250245577822,-1.4291031324100318,-0.55648186626811968,0.38150675907207421,-0.69699622760651203,-0.1259237619390742,-2.1985399473478928,-0.39425606609391017,0.40556579283801741,-0.068473372822898462,0.1029997970679504,0.62856414545757866,1.2827385156858413,0.65201812121912062,-2.4613881262266823,-0.92704022846393941,-0.72898049940194953,-1.2656161344992638,0.93659011312619145,-1.1112236892801759,0.66503801223730707,-0.065246993085766106,0.096632817896553896,0.68472037990108381,-0.71917768503431678,-0.50952838345370632,-0.25557807622883766,0.41293045980111137,-0.3589200001817206,0.26399464780612414,-0.82095791162016651,0.43341221186054041,0.85927302246545856,-2.8754332613355245,0.70381163036861238,-0.88927898410585926,0.35458747549953357,0.18156302025948079,-0.63347341198733742,-0.50667161822659068,0.5560965888254944,-0.35445914304746046,1.2194968818225069,-0.70143926222677422,1.2409618836748382,-0.33357810369026292,0.11781333446060338,-0.7178607839055523,0.05648713828164377,-0.63255409837430732,-1.0150893214163941,-0.52140060256531462,0.87406636097816348,-0.51387672397029294,-1.1308416156642007,-1.8301076924831945,-1.5163183701270939,-0.85496393513201763,-0.58326343420032389,-0.067626424935325433,0.86943629011026369,0.85283124687123157,0.27794970559407217,-0.81940290440287034,0.43463927454135953,-0.01249916424672743,1.8580210401580415,-1.0328878393236376,1.141294524266528,-0.43696942946358891,1.2206680164411829,0.51068095431989824,-0.036336617334342215,-1.6822701181061639,1.6393830152954818,1.4946890644872626,-0.67565343859775895,-0.19003016987044796,1.8415041452838059,-0.81500661739947644,-0.21519438711119018,-0.13487094428158178,-1.1111117296196953,0.37459317102697853,0.11383220594515636,-0.59287299320985676,-0.5659355830631958,1.2461944469665001,0.34564647791505704,-0.58669833585071396,-0.94217538741148366,0.85226073965995142,0.2379202166303144,-1.2140691532590633,1.4965362073345874,0.75082962732128911,0.22949129307775176,-0.91210733365610441,1.0499802030924799,1.6081655792529153,-1.1770297720309073,1.3411042754841107,0.9562507131879765,1.1126614005773627,0.6494766909026225,0.40875109812265986,0.73520319012101298,1.8177536409769124,0.39782359896827024,1.4883417437185948,0.86826843216157823,-1.3605060479800408,0.55117496160177071,0.21206136231012712,1.6010258234072092,-0.74652874849048956,0.088627738537889481,-0.01709944947288131,-0.22595954227929749,0.72326492499017669,-1.4361957570174955,0.14904524932693786,-0.016339519618645288,-1.1637558399819168,-0.54391032719194077,0.62059987833152108,-0.95981381851960679,-0.4750618574047285,-1.0737352511150515,-0.96534764836246811,1.1236615600980941,0.79864375527239928,1.7526863063549043,-1.4846592750293581,-0.87800358018532665,0.43147755726731557,0.30348689770001291,1.4660637999618362,-1.0216037861167273,1.7080618215751839,0.063601813316180533,0.040494498083951627,0.25472386223698229,1.9967379637042659,0.88123109066163674,0.5212882496194422,0.076792232479743261,1.7187180267412077,0.10174188311310722,-0.40291389414993672,0.68322394653191354,-0.78787069361496431,-1.311245312864773,0.39367556067292825,0.11408079842973488,1.1245081654978346,-1.1628824816788714,-0.65342328099486768,-1.5669497430318202,-0.68982364961336717,0.59463960073294986,1.6981190225529619,0.85005479759939584,-1.3839868175136931,1.3151261941794277,-0.80986693195610282,2.1054303147857905,-1.2737516685392711,-1.6526613258264302,-0.57436000733851977,-1.3475470873586848,-1.0551094131664509,-0.48550632028652496,-1.044324416102699,0.20990426218196365,0.54243386238391444,-0.62918871231116424,-0.42728810838690567,-0.064021718198986985,-0.86637198499544266,1.0348658053826043,-0.63967000983355859,2.0378604178726114,-0.41968182748142258,-1.0395300121842488,-0.24689689661688818,0.28345006316342031,1.1012572199025961,0.21037556528346529,0.15507754420300157,0.71273701868141515,-0.46528486120504736,-0.74492979859621733,-0.098187055425112621,-0.53576472394663344,-1.2375514819137285,-0.3932847079090655,2.5893276883958678,1.2063885562487517,1.0050099010109461,-0.87870433508740087,0.93379211406382789,1.9251391571455332,1.4726672767989444,-1.15537057553149,1.7340078394743357,0.1374893762655538,0.026868211976174346,1.0515259663096375,-0.22892352446317582,0.022448937350131978,1.3426699832130216,0.052901988284290206,-1.0425622022896366,0.78433737527062375,0.422697267758808,-0.82048067394331659,0.60588082517407738,0.73999179460167519,0.022526180822030714,-1.6253009975993591,-0.3835267379798456,0.90342491988068907,-1.2102231198412481,-1.7564547074822709,0.44385841481903537,0.15860027523772563,0.50436708737523395,2.0830397144715525,-0.70068166375610053,-0.48926082543241461,0.095190346112846963,-1.7162757335123398,0.8558876067963902,0.98352534714706275,-0.98703546088120142,-0.15013364251727646,0.22882468427620919,1.6656390360149635,1.6225573786541214,-0.84383744821623929,1.5538083831221645,1.317492437465303,-0.44970835834804651,-0.8859415060253637,-0.97487184566314444,0.38486689269845403,0.08826324296745082,0.80385666275306966,0.70387293768361592,-0.44290345442864665,0.52281751163768897,0.13630138266522268,-1.4446567181848713,-0.2788604730709065,-0.30611803351624806,0.068640166990319953,0.83763106119331343,2.1162100573813918,-0.33474252379895508,-0.40449942014205714,1.1004438972335975,0.76154301390277546,-0.83122917529604534
0.96938359355486814,-0.12570280639690368,-0.53823343722815931,-0.62586162207874363,0.59314156254991957,-1.3673677036547434,-0.63061216856375835,-0.62119583792417477,0.70851854679056714,0.22474796340430772,0.44527165208396052,-0.3863114341453493,0.19860858829347289,0.36060640015900636,1.2366793269659584,0.59982348038732036,0.29427324977863545,-0.031850100534069524,1.0387547639830961,-1.2012731837916986,-1.3057603631620551,0.39632478250304587,0.68441484531920194,-1.2850364418870988,-1.5971258128252719,-0.92546669660351455,1.7735693250970932,-1.3804041274831234,0.018382546154199861,1.5754325575816726,-0.023267792512626881,1.732504262384978,0.053571360284032261,0.30859793763127158,-0.13732527744371201,-0.37456612830845448,-0.80302692034202061,-0.28975797928607444,-1.174125375887578,-0.11967916164845246,-1.5264599568257271,-1.11657832520685,1.3307930197312898,-0.93235527980429456,-1.6370793113828062,-0.65545011823903843,-0.93395067193230508,0.58580529498735578,1.5253344951073582,-0.48624263861402001,-0.028167366860793887,-0.88193222201149379,2.1930069085908075,1.3249333214745544,1.1806732304671221,0.02009986388622579,-1.1544740416483079,-0.077352215788413156,0.46470850148807086,0.020984225132613402,2.0340981625817984,0.35325925948364068,0.99830432793057888,0.62633274786856519,-0.52427060372525824,-1.8636168340862924,1.2634994910669932,1.6593546050501427,1.6249321311591849,0.34964286095644104,2.3495396274583702,0.52435462111860509,-0.38880126962823286,-2.3496264358275769,0.51655208803684005,0.66579337735022004,1.1679836444600513,-1.1516889096862759,0.35269958655363204,-0.36243963938436208,0.46017897777326133,-1.1697219258225167,1.6263401446417416,-1.2558827222043272,1.8614353999874007,0.70603917764033763,-0.041682392818474877,0.41361100210568535,-0.74058723476893396,-0.095600059862576442,0.87950539668483008,0.053660194610282777,-0.054746016159053952,0.74332455745957049,-0.91686383706602059,0.41455227986061188,1.2279644472016515,-0.62772935620704962,-0.12007645124394163,-1.0212833471603016,0.71759706680494817,0.26083507072971035,0.037224781144969896,1.4009102638651405,1.2271574335985866,1.1453076388638121,-1.197843746223844,0.91479517991014914,1.2977419653366755,-0.8989489868434134,0.40259975529755782,-0.35042679029199947,0.72304088760646124,1.3173754612911934,-0.3148986032778715,-0.88639306676224483,0.25631202100912831,1.2613359975354239,0.25550933769700146,-0.24239326574531322,-0.14897366915623134,-0.21370559543469053,-1.802669836835664,-0.37909164713740856,0.49354977618051099,-0.54332068103416731,0.5750437070728226,1.0990623137338795,-0.12719407006176939,-0.57842690737272395,-0.32151786774154523,0.33372079433194646,2.23273610850854,-0.0062152401702784254,-1.886743731685192,0.011476244517353585,-0.98280152614578498,0.03042478501223389,-0.71400948499061956,0.38278930213447598,-0.25935870382207921,-1.5289546049179195,-0.90633740703247268,-0.65797341483239502,-0.44436699631267657,-0.19219116724334823,-1.981033733627275,0.47727512615731221,0.5976507988864338,-0.6313998010867119,-0.91817424845791351,-0.13689084166423454,0.16923548329507959,-1.8588509184196724,1.3283933666312062,-1.0352412714758297,1.0254302543035958,1.8431743837894183,-1.4884063503760743,0.11982415030692072,0.26903780297980834,0.50168282494331828,1.4977787504173614,0.17666660070262352,-1.1126937992369059,-0.60590400686122126,1.1808785511401707,-0.6469092738410297,0.36076373189311411,0.46385770103940582,3.4768869423704518,0.17454022035628433,0.70061472843491934,-0.88082008290816838,-0.27825540299804463,-2.0195874956927593,0.072052914709272317,0.53149166028172312,-0.89848956558872972,-1.0755093990583633,0.81167977306668004,0.53283500290527752,-0.86874839881395416,0.72511166662785376,0.28004203066319111,-1.1550516184747284,1.9839557910947112,-0.83860536304239708,-1.2028723995679949,-0.37111761895383366,1.3309705955894364,-0.9143480441827917,0.082964205514438241,-0.37278683825550524,0.38422956107460671,2.0843072000862528,1.0817877494786083,-2.0142136613298383,-0.93712181442538089,-0.51145326635580224,-1.1670535182261621,-0.15257287184519144,0.90706255112582257,1.4312524014980541,-0.29203129642040088,-0.95124316956350818,0.75022849856988638,0.22821359645587069,0.3428779117177494,0.25261326652133215,-2.0037714112710665,-0.30036650606862664,-1.0054940733173983,0.73794506573462959,-1.8346887574927622,0.86077052513321251,-1.6185511800867496,-0.723329951086778,-0.34632568120013479,-0.20243767426685935,-0.24385492391695079,0.35937337622412852,0.22433678552500502,-0.73144449303501136,1.232962189729425,-0.33624327367111018,-0.72142314967191534,0.26900692409094396,0.18246372875367131,2.3913422143208782,0.20287377527040296,-0.049946150038283968,0.288261679365857,-0.9667788718142466,0.32985991824044669,0.19686279636545731,-0.024848175074702491,-0.97871323033137037,2.3123404506290819,-1.8336007980277123,-1.0299565927740402,-0.030353684009951105,0.95563452320910625,0.20598372450796276,-0.091668599190574157,-1.0336573355492717,-0.5575252609926874,0.23021226800208378,0.19554412845112509,-0.63937764623917959,-1.7405981667675592,1.5950555185869166,1.2818260219511597,-0.96182244889300328,1.2968533744985038,1.7611901214397745,0.32839300276010397,2.5332281836232058,0.28504872101811402,0.59039002083069492,0.71571357530966229,0.28371912194208637,-1.8945608856700529,-1.8834401245698096,0.2812339697757863,0.39453723336841517,-0.3937838237944925,-0.018639799789634291,0.89336276947232618,-0.92060747570566592,0.84962699722456447,0.87237350576427442,-0.85562843566041769,-0.55573625844108732,-0.65559356473905284,0.6504400730415254,-0.17630248334063525,0.33308146556345142,0.32375179658509012,-1.3934948969898415,2.7547285863900854,1.1504480902919836,-2.7006647133055615,1.4591751507823219,-0.78142618242396999,1.9024818696738135,-0.47668783175160034,0.88499908099475999,-2.051353800384629,0.46621401485154534,0.75090956741920367,-0.011549175399919911,0.46719915491135899,-0.50192028273942835,0.80230788489620397,-0.19348190690336825,-1.1810094619197153,-0.94552510034291104,0.90118165673843287,0.40328032290743154,-0.91050300007620377,-0.90666927942291198,-1.4301085545831029,-1.9552819556796273,-1.0967351622134838,-0.24153044622445152,-0.34336106699838587,0.032245779045597535,0.32850816273883798,-1.0157863704390158,-0.52864176310119859,1.2950996239418198,-1.0371551158847307,1.9743802105078874,-0.14947760000400562,1.0915887114023182,-0.61198260412882644,-0.22005722697741753,-0.28900925894187279,1.0766884947546818,0.15364008091710954,0.57771696346660328,-0.054972835038420105,1.0645714455334352,1.0566037498794274,0.75402209911989293,0.09829602502270833,1.5490978469908014,-1.7684386561073238,-0.53816119807032559,-0.53010538333435797,-1.0800955830444761,0.43720937192647835,-0.048565701394650766,0.72361607281827034,0.66975801212180819,1.2369387127622364,0.86051261542244095,-0.71320637213572391,-0.88269207117639026,0.5771347911293665,-1.4261156269393731,-0.095886485444164227,-0.30181937603658004,1.6514153168589776,-0.15666912716750914,0.49932358930691362,-0.18795618316755056,-0.78711373144434593,-0.56489498452241471,-0.61932830271268391,-1.2168000861797752,-0.54274373801781106,0.74065607208610817,-0.66108794885774613,0.22614365371445475,-0.51945160980960015,0.93908221067024333,0.54362450538333762,1.34164860901379,-0.3998193510387158,0.84754863884050113,-0.71640770678438415,-1.2509977591486594,-0.076351134145285202,-0.46646769675562727,-1.2337715795137723,-0.41409682991276409,0.21408532337877512,-0.44180159907555838,-1.7104735476631339,1.4077048581582778,-0.078515673470145181,0.67888223399461645,-1.3300135305202094,-0.509453397320769,0.025457744501184799,0.10324632020400365,-0.53716337316823204,-1.2487237173777543,0.5234191053943178,0.18395929110294962,1.6874250456339823,-1.1804015516212827,-0.64655017494102485,1.1909938896099856,0.76813276699422017,-0.71829125632964175,-1.4428789319894224,-1.1144526449559193,-0.59794415956964519,1.1787406405379586,0.17941450931115521,0.12056209052943691,-0.086377270875706111,0.58509137804135036,-0.80259419542933097,-0.24765792536630296,-0.40512209098671431,0.29099386231304342,0.43379425380923825,-0.045038812097536574,1.7878662230966584,-0.19228749141803964,1.6234862946841013,1.8418411737224418,-0.6073742493388995,1.7352143626433745,0.75747627915829907,-0.23676245656234537,1.038714552445267,1.1085938861175033,-0.77945682908796599,-1.8952289303478485,-0.29436906036168026,-1.0190879426098107,-2.2280563811593788,0.021013990510497134,0.64048043127332466,-0.73587234829880499,-1.2180511341896152,1.4460273793470639,0.1263703238579153,0.38812205401886796,-0.16106093733289978,-0.3173021157493241,1.3027241836586179,1.8035104076215973,-0.29096774498175904,-0.92324333373575729,0.99006072167978743,0.82032030160879987,0.91386064109464649,0.46257890382614697,-0.4878490227475355,0.37594847863512026,-0.26149851200564994,-0.26804051973816201,0.61735632749431801,-0.57491637168730425,0.67750047992562057,-0.31005725549409568,-0.31058643341093545,-1.7444948370074929,-0.26962907304677658,-0.93712926912332639,0.80665748574071672,-1.2349653494313448,-0.31718200825536463,-0.036671847274149703,-0.44901610391968055,0.31556017777712914,-1.382736945079176,-1.2281738284723189,-0.66785293700133508,1.8538522562242703,0.8390157737977183,0.076454738237485054,1.2037838064044966,2.2654885754645,1.2141091009548561,-0.58363843685513106,-0.5093544493207115,0.63221295580918491,-0.77769919435062684,0.35430084741195628,-0.44269271287126294,0.69456231925868861,1.4484949235916047,-0.43528065856524661,-0.55845593049391984,-0.99275479850848691,0.83425515115383742,0.51560427468347514,-1.5841933258334631,0.65642728160663744,1.6415135728016534,1.0796737619804813,-0.049274781532474853,0.43118648082657351,-0.60038375031908131,0.20506537867402491,0.34147158509996023,-0.14706174924214663,0.0088176620114825237,-1.3940806599455189,0.71209629521149498,-0.23297418529293723,0.13008925128306709,0.32509898182586866,-0.20814722733819249,0.79826433716124534,-0.1494336293700407,0.094063524783612962,0.34645785197667772,0.92670912778536996,-0.57255905768399196,-0.097393787031163068,0.45565319040869895,0.74809701820852692
-0.94557717377883344,-0.3787370700992132,-0.065877604808877985,-0.37678544409312636,1.1612972972243782,-0.025943870750711428,-1.4560327456537188,0.84576041194010232,-1.0549797300612316,0.64989110915762527,-0.75876944561204052,-0.13411232184654182,-0.42153871308167062,0.98270642556933885,-0.35519575131800157,1.6200485733745067,-0.18177048979330743,-0.5364789921887666,-0.76340770324220797,-0.30617836435941764,1.516735872609412,0.21927077553429419,0.45321122677074854,-0.68974311227735974,-0.70959762007855098,-0.34313146180605009,-0.66241345255907358,1.1834721085583679,-0.1382172662225262,-0.33774795640820338,0.30493048173109627,1.0736459342345595,-0.066110849906785202,-0.11375620996362867,-0.085246248369589148,0.54366566824129625,1.814564819636765,-0.21015592881392264,0.65481633267201833,0.33140781351708093,-1.8162777318770296,0.24961688152167608,-0.97037345370060457,-0.58338625169106717,0.34175996580338069,0.16404113496207048,0.22437143951774957,1.1691869866710967,1.4038345498950682,0.27710330359324892,0.88735517310625245,-0.82498680318721607,1.6826857400153912,-0.57692422531831655,-0.30412996386665009,-0.90066198657794372,-1.1934117382257714,-0.94613336350600774,0.063636760802851064,-1.3575099035486031,-0.3444588475896731,0.66054823583168265,0.46350894782416996,1.4493668842416529,0.31984685942668339,-0.52667918164798488,0.065074631475633346,-0.20867823827953047,-0.95703484939980876,-1.1277040974229329,-0.12600508346364611,0.044610913848862122,1.398317742277243,-1.4476845507572358,-0.14223774407882678,0.59535061914726894,0.37526111841177789,-0.23667892346376854,-2.2598319863700995,0.23399925878520991,-0.84775012885894441,-0.2740918225601276,-1.2080272952169313,1.8913459447606387,-0.46423313630817536,0.91917369223915735,-0.42877622202911131,1.1506595065843548,-0.59478371444855349,-1.6834261902227567,0.54070419928646729,-0.21631290945926326,-0.78509554950303218,-0.42477393282919634,0.36811234561599065,2.2969003062344049,0.44189995302461837,0.72581462124889207,0.85665372023722508,0.8614485636430429,-0.5555752053146582,-0.98746005740180898,-0.11424624244490579,-0.9977762144513338,-1.4573370994724582,2.0444766811508481,0.55168564331455183,-0.3461886591257034,-0.82955436257418536,2.2223595410771568,1.0753348171653965,-0.64827771081098984,0.58831249197005453,-0.65335291670155171,-0.58806390320203883,1.9442067836130041,-0.62758500375985948,-0.3633036482650604,0.23421327131946895,0.03569131728691307,-0.40489810447395425,0.24044778448231371,-0.82372548545025781,1.5754224107639963,-0.86933907440857838,1.2408627316263123,-1.3288760134076243,-0.24943180627939801,1.4991660141179333,-1.1990108152985228,-0.059057304272430167,-0.099803301392573429,-1.1419597933481185,0.16704908923675166,-0.47493569430895072,1.8969282045783749,0.19124446209860388,1.4075032149809528,0.16090979257090618,-0.095649429715969042,-0.95192925754948665,0.27037133521444928,-1.6398322035275517,0.76937942226633838,0.27735756751707624,0.0031483129808681514,-1.5893379476664007,-0.63433571926630927,1.0469073029771543,0.54486829307026996,-0.44181653339015808,-0.83641571636943668,1.2349606210609472,-1.4053586186934726,0.63914957628648261,-0.66625078114207203,-0.50204801727790482,-1.7723776815861145,-1.1842643015825203,-0.088761055467120251,0.05900793387169409,0.77090329152615056,-1.9660730359026855,-0.049386845935379751,2.0787140413981033,0.41014197174782824,-0.37579071157894051,-0.55147959221416154,-0.17015416590556226,0.68297555757620088,0.17289210116641984,0.52716146722153878,-0.28422349088295873,-0.36076414854902966,1.3326438890124248,-0.90260839327273912,-0.085182812067987987,-0.74569313691500549,1.857103753134496,0.6339593212672332,-0.066311979243657934,-1.5109527151337059,-1.8686820586807333,-0.0059594849959419818,0.9428911670255532,-0.57587577385094224,0.88734854058060086,-0.14360830970818622,0.046115587147084205,-0.81968030376543266,1.3821060316033966,0.50561716311364469,-0.35656165287836888,2.103330504018937,-0.57357553464004607,-0.32895094408591297,2.4920472818358825,-0.94937869261090901,2.5215477913573388,0.11593363048754617,0.033174197462112351,0.55233638566983034,-0.50641603167676108,1.0977543834995331,-0.21478727978471313,0.16115566338423487,-1.244898988619799,1.0437997022821108,-1.2820870181363402,-0.49123694864493506,-1.6967952171020519,0.25652145446323477,-0.4714037547382578,-0.055653087432599585,1.0846656224822429,-1.0320670430335432,-0.61297118015412422,-0.1173807852875671,-0.24499511129545051,1.0818452737798714,-0.092076054633233553,-1.1483633536424118,0.34723342240365224,2.0404087300761087,-0.91793180151114062,0.015033468116977894,-2.1693935609498753,1.3915424135347167,0.57867538641882965,1.6615520123202345,-1.5991976022068655,0.59468088056927926,-1.9296032823581326,0.041454249825424248,-1.0180957515438409,0.091342170643041135,-2.0059536653240588,-0.96787528230046294,-0.23796463109551313,-0.29080211612385259,2.9994927665684141,-1.0671843713280673,-0.27855464288574683,0.54868721795891739,-1.1144431747939134,2.6466168785960784,0.02907945084233763,-1.1997729993418911,1.6135285117329063,-1.6941214799252231,0.14716586667517212,0.69105964949885501,-0.72884181681860716,1.2902693672015544,-0.017484998545635698,0.95551575025678759,1.293369506046121,0.73361514237640557,1.7765091569233387,0.78215272249953416,0.026365548927407216,-0.93410836236532913,-0.36142671589834857,1.0414917021340351,-1.2325840165671049,-1.6454863925352119,0.2569685613813017,-1.2382975024573044,1.6843497548765602,-0.64839531142357054,1.3974626990027326,-1.2330422581377061,-0.057513106946292934,-0.47010941561965253,1.1706312232807397,-1.0036287228345444,-0.05928735742351101,0.70644899778262782,-0.31898820504203346,0.29745704207717183,0.74097439563534173,-0.83440383357869807,-0.88779047401267763,-0.51213989993295572,0.95635999023916507,-0.066273168334689297,1.6502231759760637,0.98153406758809902,-1.4209531516779674,-1.0788829979206884,-1.4126703461602956,-1.3992811276301875,-0.4554289135621501,-0.65518821373344371,-0.53010341564587182,0.1535438702145554,-0.75111084783465509,-1.7553783657350637,0.35702172400998106,-0.088426356465435271,0.17142731172491762,-1.1102249105375803,-1.5066572070701789,0.77451139505107047,0.84548924293166661,0.33620658201742715,0.37334956057302238,2.2467629356848575,0.034524807276818746,-1.2446209698738333,-1.1509648389048983,0.31141214190218941,1.25435277491349,-0.57961667981315024,0.59282365153645133,0.97887459408366118,0.2315356194825739,-0.84475617412830695,0.69262822781664102,-1.2090358587512773,-0.24596286360541617,-0.79615906166219186,0.42637732324697258,0.67429438006735842,-0.54781604701727205,-0.99400634196486637,0.45829894838963831,0.98641532190008385,-0.65742344927618879,-1.3617199224599723,0.29746763827836714,0.97507634107335495,0.75260899148961291,-0.0060069365374758573,0.61929740038671788,0.76824851724575649,1.0635851120704414,1.2156781514753541,-1.0517111928504141,0.40503509663509057,1.7450068610097169,-0.159061535308648,1.8892723540677028,1.9610261953034818,1.7604950095112004,0.33398735975793131,-0.3856290803795408,0.090254373973077603,-1.1790235352658223,-1.2056980728386741,0.082733707707170548,-1.0735299957461666,-0.99367086118735926,-2.0767988495872904,0.025264980176930782,-1.198964380780245,0.10967634882268668,1.5387705955050159,0.78060278425768925,-0.14824503605761971,1.6400810770225582,-0.52009274116345927,2.4343894919126279,0.42081833138353752,-0.15385657966264688,-2.0130024312200021,1.3878157130096047,-0.67656687585901976,-0.66614311458086062,-0.97964422967150278,-0.29481637627879426,-0.22966381804789274,0.33876021511414495,0.72488268840707759,-3.0960385983856442,-0.58103259182498035,-0.74317891016512971,1.8376822714455197,0.51833480824540945,1.4348236516671695,-1.3511691659962055,-0.65646985324173446,-2.1386579866407858,0.7727447806742106,0.91537993774658333,0.98868434678153017,-0.79021756844630719,1.1621744225596766,1.2699474360759355,-0.84187468563138113,-0.99561743982388462,-0.44645041680956932,0.37282861951812846,-0.10491643021096082,0.06179699774758992,0.13248537945681113,0.46230939280526717,0.8375998211114839,0.70077705723035089,1.2142300898000022,0.051084209594348798,2.0404280796449408,0.62360456677146792,0.47859363593958826,-0.56804842902182129,0.35480516693311542,0.42316015559419889,0.89228025761611429,0.12555166315262628,-0.18343849517009089,0.025964886252139129,-0.52407162076036673,-1.6516819735932071,-0.036644232234752307,2.7575433315606204,1.087982027669689,0.47560297220811942,-0.34260832698214022,-0.67470547727767671,-0.78065989819891746,-0.41432913595132281,0.025061887666017954,1.5424032177006195,0.086280030930423593,1.1605299524780919,0.240026128916734,1.5886036596831743,0.19341917317876992,-0.020832069216260327,-0.12544288208711482,-0.61110013433493526,-0.84809414221573143,-0.62246489388705595,0.087294647218013388,-0.090491987841693891,-0.41236817489868982,-0.85371011774923689,1.0905384189664209,0.3859511634385912,-0.068243009685375153,0.10628505506338172,-1.1230937391932498,-0.38023892736320131,0.60429292899344111,1.0232942717715234,1.671413513931977,-0.50400439865379143,-0.075274873019519475,1.2356021447519161,-0.76944589400251462,0.90070058906662143,-1.7866871096796666,-0.78604928679789599,1.4670791661721974,-0.92873208327806867,0.94981751847725282,-0.97828658405010394,-2.3412186836225835,0.74326468542928692,-0.19409948662641291,0.75425161023228959,-1.3980473025805351,1.1426966734096617,0.23494302108662501,-0.5120116264816359,1.4370695573024708,2.1873142509461903,-0.39855371320229349,1.758330029796632,-0.32949481731451169,-0.17960284907422255,0.17988309460647928,-0.7511546937459378,-0.017889769063294987,-0.45698179003627071,0.77646303139159401,-0.2694755337853843,0.30793330067406982,-0.28434720102276784,0.28941942909180834,-0.33946761570033007,-0.59109267465751492,-0.77210207486988436,-0.072235344067693663,0.87281599011405708,-1.376748245383596,0.59616253730778057,-2.2353944642482633,-0.74674020895112958,-0.6423585445887946,0.62187492633092822,1.0264516943837794,1.2911586946867648,-0.019976305198173085,0.18613388589519952,0.77039786301623581,-0.38415377650391169,0.37287264220580146,0.35106326467325172,1.6136619239925802
