-0.54162170014943467,0.44258514584513159,1.4459331873082939,1.4357130816810708,-2.643965475283784,1.4316758947328345,-0.53446959510012448,-0.70792588475593554,1.2931356227913153,-1.1085471275079724,-1.1645603695814908,0.31154612419928046,1.9195738918779006,0.54271570077249587,-1.3836291914917427,-0.60587462593950814,-0.16519673320213413,-0.044981985362822011,1.0073370291564574,0.74312958777362492,0.098056212342591431,1.7224046239062296,-0.97089710763169768,1.0621922813025175,0.24019451384212978,0.92147639382232516,-0.27229411479572302,0.19273701893663295,-1.2950892285117293,0.46635103076618217,-0.33241938054056946,-0.97703594877996269,-0.47663099492574401,0.14381526190522739,1.5869165429120053,0.56518724022646027,0.31318840941885567,-0.61866639007495183,1.4378901240703901,0.5933819775444511,-0.92152864969592319,-0.44780763054725936,-1.8859944774743977,-0.48673492391266115,0.30593122219624685,-0.17156933008203504,-0.62880409566461837,1.1465179449720664,-0.36343299485305292,-0.31838356221764375,-0.38996085847343259,-0.2790023389459203,0.76182177471957802,-0.24080555480698576,1.7024754728849225,0.26917847245819315,-0.30582082787487069,-0.97523381944757814,0.61520762440163079,-1.562032015601553,-0.020814354610849121,-1.1013630681857136,-1.1606808817734136,-0.6790858301429975,-1.5550520222393529,1.1416317031080163,1.7473425381961947,-0.61102943600065096,0.42033738876054183,-0.32375309160285737,0.29694541144365061,2.1251788377698819,0.64963255045021551,-0.32908971893810091,-1.6419837154045673,-1.7158109536219164,0.27551002342584979,-0.080045097648147434,0.35829959997880306,-0.83740984156799791,0.83347165796789369,-1.4497023033196614,-0.80474028169382705,-0.51537606570404693,-0.75783399714194932,0.90037477414520883,1.5491027832259894,-0.27773926535790505,-2.1430870516813512,0.023387613540355946,-0.62926914504297948,-0.46676592600028383,0.49634991003750512,-1.7434225176913871,0.45449604973336272,-1.2279786202809619,1.4017681994627242,1.3798781419488273,0.22524471985356426,-0.06753448808104287,0.30931873933487547,-1.0193963752997184,-1.7281928884079225,0.28628374160264253,0.041766529866862585,-0.22620372891783952,1.0181284073589199,-2.0429975811083443,-0.20228476771072779,-1.6246355090655342,-0.039979911527457251,-0.93916494731304001,-0.5133216692702236,-0.90969546694092573,0.018034133593349804,0.83046781471661157,-0.38680440215204048,-1.2641576494955284,-0.41968817754387094,1.3195293380222617,0.21324247256450601,0.73270294065518526,1.5609912800829913,-1.1990629448856527,0.40114484369102654,0.20917067909223816,0.22917591747459004,-2.0433893412627087,-0.89705064275669533,-0.82323030260800678,1.7423655147448318,-0.0022599123506748192,1.5963523573364564,0.71779063019048084,-0.14023409087213276,1.1927629063498224,0.87520167378546188,-0.095484238781208847,-0.19049006370382895,-1.3304314813113398,-0.28356777956674029,-1.8253550173445037,-0.85372088517717715,-0.044213839986221228,-1.288310734174267,-0.11218243593684657,0.57043061197700018,0.86218037047569007,0.00054775794472085727,0.68740651740765024,-1.1536055428654732,0.15578771504652691,0.53283397595566695,-0.46836356273738572,-0.022844362894492182,0.90495841620336903,1.8564618871718868,0.16907789655892538,-0.84660376321949327,-0.83285474671835191,1.4778458581321214,-1.8633780595785716,0.096563779531676511,-0.9079516470451594,0.46406448648864035,0.97527554599444599,0.83190346224259382,1.6458932436174591,-0.3597793626427398,0.56157858657870718,0.14760762626543586,1.1365892565097879,-1.1411924458887837,0.597980190037811,-0.50453426281814928,1.647363746759781,1.4783735248491465,-0.98209228213516186,-1.2064944420970038,-0.35814125776622069,-1.0641894005286885,-0.01459830156936745,0.045403166074199711,0.73882715972458057,0.48072797973419462,-1.21368075878252,-0.665749981853069,0.56313381097420767,1.5040926197938849,1.1079297614060026,1.4373738389668074,0.16918715001210793,1.3342973765999466,0.46093851484217646,0.35641176794973101,-1.4073854994426303,-1.7539670477908065,-0.30365963174818794,0.26957733639646031,0.59686906130290007,0.84492791115878807,0.15650968173335947,-1.9021781524605026,-0.91555713083706802,-0.92077703685205725,0.60083533282499524,-0.95666374037370938,1.4854921397216612,0.9840716149033012,-1.370163115251698,-0.30080588544702136,-2.6888829586025995,-0.19406947760885743,0.00034373684547335612,0.3894807371842478,0.89841887922972452,1.5580137044380935,-1.5725725979468295,-0.15051897903524167,-0.61743474772981322,0.72556167904335345,1.0997183103382118,0.298072299676022,0.89141928957497418,-0.2449341487911055,-1.272191206240169,-0.13683443188562194,-0.49339237807820197,-0.36762722000856191,-1.0410223754462213,0.036865881155069384,-1.1782509048838963,-1.4640272294133139,-0.59741258933540053,-1.3582615907426066,-1.4845479687404368,0.012250070771348411,-0.27705468614193945,-1.0385452393150783,-0.42286596230991991,0.0032823793507731789,-1.0048716041966439,-0.97076951920751298,-1.7641292058959568,0.7762147815339896,-0.02880264897979834,0.57671275148608592,1.1038652866605421,0.452473228204682,0.64286870469184365,0.99072929213379601,0.06080290765861654,0.17868275713495008,-1.4207313852502215,2.5388062870655674,-0.18118784176553096,0.34014508536836724,1.5070501990211083,-0.60055749096186117,-0.52655822925788975,-0.90577385628116114,-0.1588237286179984,-2.2513176063200757,0.4728794990851809,-0.37575955086109142,-0.77471161550206935,-0.1401151569209462,-0.50406855517546767,-0.62812004965694279,0.70328194369952823,-2.0019496137068717,-2.3821758704754958,0.10302545582936475,0.87627776471276009,0.2893365250206863,0.68365307260191843,-0.014874266729767214,0.079616022487764546,-1.5362799563510536,-0.49714319387985206,0.77076590662897548,-1.1708237979439642,-0.30439899353333283,1.7338197077429038,0.39025289043544836,1.0690266254332461,-0.8463136194005576,-1.677079290972268,-1.8385677105932694,1.6209811541770451,0.30020901771450387,0.061353283943287644,0.62951457862052507,0.94615267816636406,0.38411051824079051,-0.077676767267994121,0.7616664818299651,1.1972602806902317,0.1862213384658849,0.4230807860413211,-0.27503525962796876,-0.55820834763336125,-0.33927179893985748,0.94554884717211896,0.077128811419149693,0.97438084224157462,-0.66589793885164017,-0.8621237056927793,0.12551378515173714,0.73454465205839348,-0.22533317158757424,1.4846556122284023,-0.37731460411044182,0.66957389793676581,1.9308912169000156,0.47815577811620008,1.1912441843117543,-0.56024310616109185,-0.55894552545525811,2.039718311247356,-0.07682324325341125,-0.33902965950950387,0.35686211387602879,0.21818237276201194,0.44626179716423059,1.2049894655732221,-0.080525337190802501,1.1727766450226318,-0.81960766823189868,-0.41743315633477646,0.41505639676337164,-2.5691231689121556,0.43091971573075499,-0.43483591495779983,-0.37721333082684955,-1.9044211187029072,-0.096498626379954322,-1.5291757203597769,0.67141410147504055,-1.1209107428278819,0.92646863822062053,0.18430731516978485,-0.34488181939900964,1.8280630253871863,0.61571664192275377,0.27547465485447414,0.14964194408964412,-2.2585092133854423,0.78423018827035584,-1.5225322337182043,1.3295426094114731,-0.37455543925764856,1.3103499329265611,0.37151775410139087,-0.34470040975284127,-0.53162653051757547,-1.0571433933857686,1.5332054997364957,0.93073969499215059,0.054418061466781575,-1.0951824618715411,0.37915099622914794,0.78052898914655156,-0.30457320551526179,1.3616055751065104,0.48268420972540782,-0.10148362735770589,0.13852772339395542,1.1943522705258911,0.16329442586279827,-0.82197512561303432,-0.31192207091018304,-1.1817537893152612,0.90890798384422666,0.08342746215880506,-0.68306594346524752,0.25663237167017888,-1.5959954726609276,-0.68168210207442304,-1.6181518541613609,-1.3583906899143987,-0.081802131386360027,-1.2887604872054499,-1.5311489511028968,-0.96665916317402489,-0.41559121824146456,0.083358375451542288,1.0782887334186069,-0.81026467326134333,-1.444902085653111,-0.40400660702175206,-0.88971907661760408,0.35065947823333793,-0.37464883250273362,0.84103662964123738,0.33005185063949133,0.025920011920796567,0.8388876542975392,1.3898086228669821,-0.040828450532417404,1.5785809954405734,0.28390690416577796,0.30876513094403751,-0.17511823839966126,0.073439589000154806,1.0179423628542972,0.49873986890863309,1.3403076797184221,1.5048757751921029,1.0909878489462324,-1.4693032868658249,-0.84254836056252425,-0.15983093630525563,1.7403536167548908,0.40289065372089611,-1.3741937313727002,0.31279598060158065,-1.1495641427539927,0.44653941609302972,-0.16465691420397163,0.60192476115832982,-1.3642470475495903,-0.80918553464429743,0.0041170782691135731,1.621831492151228,-1.6846228800055854,-1.5030966001448709,-0.057417184620026873,0.30282032334482356,-0.30408019650053209,1.1006450821714715,-0.31561844338543632,0.38043607769891141,-2.3712189497771918,-1.0799692502634302,1.0604211898571043,-0.7529496969217363,0.19761688713187986,-1.1770350390340456,0.18588383165479883,-0.66435184353993149,1.6722265604134035,0.64369451195807925,0.36106694008772855,-0.82781108731604203,0.39505925758590782,0.11753227765345221,-1.2546911356229835,1.7079186330442224,1.1014263107593645,-0.78243919669825424,-1.598756076217174,0.35867310277421666,0.42117630365643499,0.038009808054960272,-0.10170763270054435,0.7990184028727555,0.95629499870416335,-0.43358859202820138,-0.96065347035826054,-0.025046954026413784,0.010609990868837571,-1.9965082225265507,0.018739093976965004,-0.0010105650965540644,-0.69475224292890592,-0.7674356865426023,-0.61947222621074682,0.43159006265071459,-0.32669399238127728,-0.57910364143985116,0.10278895895948839,-2.3806879390591522,0.36721445409534431,0.37004479102589138,0.085162524792957883,-0.61320499926398975,-0.34565383584791493,-1.9398637510761876,-0.44128761993442045,-0.42090012769796636,-0.46122091427641915,0.30893761076591136,0.4619678803308751,-0.25708718002756958,0.55523478160717055,0.12689056662557147,-0.80965966845497517,1.9488206238520307,-1.7157885144248546,-0.64154507372395309,-2.0965606815402693,-0.1314292230708215,1.704360432437704,-0.045073910585407176,-1.8970628960293843,1.0814807264967998,2.0269959567054916,-2.2309769841777389,-0.96498173253331787
-0.70595589154783212,0.17930186250858005,1.620273276238539,-0.86800417572204147,0.019356931577484346,-1.4626321467663184,0.4650831771970369,-0.049332452720175814,-0.55091176140434239,-0.2434678176432081,-1.208395495143648,-1.5934002662626969,-0.57519573132079771,1.2809741622793505,-0.2304874961787462,-0.80165989732167253,-0.84223992283789262,0.45782631171082322,1.3856967251969896,0.70107098971637194,-0.41792506972655247,0.95357864803697467,-1.3581660200038888,-0.43468364543606819,0.63811720469696032,1.1130444944846796,1.479368099011283,-0.82132915237711923,-0.17580364441978813,-0.09933789214327654,-0.41535395668307584,-1.0710944953762624,-1.9663415514945242,-0.9089000672328037,0.66137946476646747,-1.0593238159328946,0.053741008074769857,0.32077349656306514,-1.0002548131521147,-0.84226712124222836,-0.11343204362128964,1.5695584086512355,1.975801958883131,-0.13853721404681804,1.3092243672428898,0.78923929745392329,-1.4550565169969012,1.5491908340759901,1.4146692613598613,-1.2024929337287324,0.098170958360319735,-1.5698979675141964,0.81835451128969516,-0.73658090525776332,-1.5299655620881478,-1.08322304784107,0.20034474707835917,1.6988801379337968,-1.9348693882196726,-1.4138734335983016,-0.13972012661796479,-0.62618215802496147,-0.069735778857027197,0.8071407021353264,0.72482581536315405,-0.58180441508706993,2.2977259219465034,-0.4108336159984271,-0.03361580273309623,0.52281450918512262,0.46289394500572906,0.60409245232444775,0.41380668865777404,-1.1659463829232142,-0.13487943340866224,-0.57940423589521972,-2.6733228669763784,-0.64924266349199322,0.79645677932176873,-0.05600911608571052,-0.79156238929783473,-0.8477339249514575,-0.2503058136361852,0.64099890476950871,2.0615484169806728,-1.1188631135813165,0.34913210563581443,1.1748607922857355,-0.87288085296727391,-0.94335288272560325,0.60051127329305609,-1.2607906534896813,-0.1817064563587148,-1.0380970812671571,-0.16714416835493526,1.4244266797351841,0.43963179124903135,-2.0998812391124817,-0.33547995025989347,0.30482001005026288,0.66874967902048621,-0.74114064426368298,-1.9131275770002281,1.1738137543268634,-2.3746036036783393,-0.49352494998097363,0.80336761301846649,-0.11078653274438846,-1.8936889881917254,1.074348224880453,0.0070996805458665825,-0.78524789599255473,0.048413997977593652,-0.68330895653871737,-0.30949519249504415,-1.101742521679125,1.29301787325349,-0.34709992709686499,-0.99694037531743906,-0.90640771008776155,-1.2057871255090591,-0.81846152272401274,-0.49524685902692889,-0.59430655295004542,-1.9083989843232778,0.0035128085068434922,0.29735970724900612,0.92728332440247219,-1.4824267352334566,1.0902027970059305,0.29517381008854299,-0.98879514326575602,1.4147045632695494,1.6202197922563391,0.44767427163668949,1.1349367486804649,1.3509022976363922,2.0627772293965765,0.10776278914981868,-0.8875292443981635,-1.9140134472838966,-0.25499412435255475,-0.81122109970629741,-0.94576234347398846,-0.075598851473706513,0.68195215152122735,-0.66374934626219195,-0.36455286258813857,-1.2094764111412581,0.93907980514798417,0.114746906586787,-1.682561167033588,0.79810915294756846,-0.15066741462050781,1.2455354920497819,-0.32854075008874217,-0.10423706150803833,1.1395908406296564,-1.1213502442680521,-0.089028042569980106,0.2106270064804662,-1.0689135171372857,0.3468912287298605,-0.14162063258246688,0.088275127747546381,0.49934604187534509,1.3984422117111408,1.5258767002584481,0.19591913853940462,2.7417153722457259,0.26459820893032876,-0.29607101077940268,1.4463627353849353,-0.75457777813967886,-1.0728697859714336,0.52309757407968149,0.79424324812985092,-0.87618669062516519,1.1382754203180814,0.88026060622413449,1.1119862629560362,0.70662594729405181,0.22276967064102196,1.0192932097510197,-0.67810457980003314,-0.42891965631314061,-0.10816884532750007,0.35070980550227565,0.49011274835792573,-0.2121542020146345,1.2151929729059445,-1.5307800209222535,0.76921242783854082,0.85606250635776604,1.1388419995196284,-1.126712619047763,-0.19959819344777319,0.24684218703138841,-0.6814380442046839,0.092913533925128022,0.18600418706894561,0.46193288623760875,1.4328234388874346,-1.2139775544425644,1.6613521069236337,0.73470863693268373,2.6571131705367272,0.8682007664629936,0.5972995272104934,1.1421827129726951,2.318321519759829,-1.3972134143659758,-0.19393426321328022,0.97996815750225696,-0.66452028953056275,-0.027111358725415532,0.32036041058281062,-0.91152895528908373,0.84751222363945466,1.3321582476591018,0.25702852004389787,-1.5336352536693318,-0.057416498840975647,1.477170616933585,-0.32491987112318022,1.165714153644726,-0.32739080466074372,-0.060858250812614138,1.3630101479603915,-1.2151222598202669,0.037055149995637651,0.12203784587493265,-1.2710917283353491,2.1073378988131894,2.2622751654610291,-1.6120624501463192,-0.77921652046573209,0.037801724857765992,0.46981495202971113,-0.79242256030655112,-0.49307587927719626,0.010092265862144298,-0.57040415660695121,-0.33023860039733699,-0.48247369466990592,-1.5059537487112664,1.9992268142604288,0.13566047922260374,0.75182655486050487,0.22673236566014368,-0.25889881016248678,-0.26841701703939513,1.4960757659985007,-1.4135894676588003,0.52934869820350661,-0.42929775834189621,1.0022405026984214,0.49691431311633166,0.87870814373567585,-0.64798890782065521,-0.11940323553788493,-0.86939251058129041,-0.60815911017185198,0.63398485500524815,0.029404025421171931,0.2439245410558421,-0.67218315234757686,-0.46953689930178055,0.84693159051192024,-1.7591006943031493,0.13550714801854521,-0.88423880077183858,-1.1961484367396942,-0.51005968190274675,-0.24225797996899329,-0.41861480691137776,1.8558798743518488,-0.33412897625392168,-1.8730229380461065,0.20632756727603388,0.79053186567228173,1.1800972165406174,0.20732643315919744,-1.3726559295774141,-0.32087060599265327,1.2944124335075791,-2.1728510750190368,-0.4462158590664822,0.67939086363662182,-0.89934241626074396,1.2730778127148419,-0.70422975747042893,2.8738216640645282,0.48221731926561795,-0.1121133949322843,0.73356593262628356,0.093527506901559629,0.083768416750234651,-0.81622207472859376,-0.17650386229870865,-0.24243983338164052,0.38668485776498973,-0.47728108483056564,-0.66756708225785544,-0.36146445434841462,-1.0204901991017274,0.14912961408415701,1.8855868807329783,0.41031683210370973,2.0509933180740547,0.26507546518343866,0.19438405730342459,-0.90056752493519709,-2.3822809876125772,1.0388855552624312,1.065378049703952,1.8875813397441972,-0.42341494329596052,1.6876779475425547,0.10066078059804669,2.1439029294997449,0.38633718416440271,-0.50057864265317409,-1.80353762678042,0.40719214241064794,1.5357741179022095,-0.14843081149256024,-1.4204067123703281,-0.46331508004823574,-0.21346429868993139,0.091051527079989938,0.46507440510346493,0.36654719707537747,1.7518538596599222,0.13519357213804803,-0.8924841713478926,-0.6177556231399387,-1.094277878592564,0.92369903580873991,-0.55487974401789719,0.78437694417599924,0.54523393427431299,-0.58295999020482259,-1.0639899490011591,-0.17804360274732117,-0.2750415209718694,-1.0801827224918295,-0.40386834800380456,-0.72373527393572401,1.0826054648658126,-1.4594520952812799,0.25176219773327801,2.9255209399203634,-0.85544556640099489,-0.43572352037016709,1.5741774638105048,-0.76624995965585707,-0.27585716679843741,-1.2731538725453,0.39582716212174984,-0.09547315996416561,-1.2347805730319561,-1.4280086975816408,-0.7719033082272625,-2.2444346881033281,-0.26216323168384442,-1.1710729625012859,-1.0356624384412789,0.49266683826032598,-2.2294259263897303,0.62995821538595442,-0.29776698837376769,1.4366496954853134,-0.39645848560838776,-1.9838750776410548,0.060262949686244412,-0.92516895554478362,-0.95303417955773961,-0.019068472727117539,1.3201589923363524,-0.80768564062726766,-1.1540349340882965,0.80276982428125332,0.11832574511676344,-0.52408285659588094,-1.8053970616906097,0.38057331441583203,0.84253774118910274,0.4257869101221311,0.15561097526996784,1.1060018218094654,0.16862594694721716,-1.0217919590203712,0.59272290425216001,1.4894915022414164,0.29343305115815066,-0.30271823437982509,-0.88369863785478042,-1.017562452656543,0.21035308812684181,-1.071655598978047,-1.2270220982926612,1.1777626314201353,0.92043022583918643,-0.66191088883128235,-0.12891456349703648,-0.42397243128501511,0.29790160083701389,-0.60214138118426808,0.93530692901356538,0.22884431277519912,0.46178744147435979,0.88199196580088257,-2.1299297756942259,0.7827381491387323,0.47450547653901537,2.8342261054327236,0.86816398614721113,-0.99723416175012825,0.61155508176663753,0.3283763883154095,0.13472162672729471,-1.4133374286037581,0.59499372494632585,0.02662580048711926,0.52876668447684805,-0.59868866333081283,-0.87777059356866527,0.52438733534688275,1.5089906451747057,-0.078468444966793449,0.27564570176311248,0.13753450140272158,0.29677529154328564,0.83103365755768821,0.027580723298279142,0.68798749035078199,-0.42490991821222879,0.38863839977480252,-0.51565161329946851,0.97226654071655527,0.61326685051518182,0.96818630851119714,-0.21457828887185226,1.8633424095591058,2.3829710244437763,-0.8597922170755089,-1.7304186156447616,-0.91928165199921263,1.3314606765989352,-0.50467429153846122,-0.19231020493261691,0.70289186807127668,-0.015630306761982401,-0.26135204797901435,0.55978073693649144,0.4021920344852935,-0.25832952633400846,0.20133377842696989,0.32083090467897141,-0.49740932087881395,0.48222055884396176,2.022392138100408,-1.3840459926172803,0.12584394922604905,0.69969095794410585,-0.88669989141574712,1.6926240380724198,-0.80275114696427219,-0.87947776425082635,2.3366266213683673,0.0094660434986764755,-0.31997132842068771,1.123758929022711,-0.10359060407646167,-0.16291748110248297,-0.36783613601077314,-1.0764063454987811,-1.5314899924411489,0.96324948708318481,0.9762016525300089,-1.3766548783113468,-1.2218443819869391,-0.13125894607193794,0.7134470074893865,0.7910852991025541,0.40992232661557976,-1.9640640151044937,0.24658237655159351,1.5415178505424154,-0.75851558590905099,-0.8979217379455593,0.25756823969543813,-0.99705024760767669,-0.17126176607036234,-0.32101332976723046,-0.74473678078605854,-0.10958211346559238,-0.68238031244117847,-1.3569509513734714
0.46817739452909329,0.35091782875048577,0.7211564558283623,-1.2557098836291145,0.57424692705118174,-0.6935045084296233,-0.18309257926679667,1.4336806843202705,1.0116622096975814,1.2374417882763009,0.82438493399684509,0.38728627110360486,2.4041775000809826,-1.2915330313803297,0.09657357444426426,2.0535326170217458,2.5256225593529185,0.4551972589732084,-1.2169171431863326,1.7829399570781546,-0.96250670939836791,0.69824062622942196,-0.12416189946065333,-1.628203816651018,0.4742617768243701,0.55265229657811321,0.27775569928546096,-0.16362841506126422,1.0517732709232124,0.2321699525205787,-0.34766968907769025,-0.27291288099252209,-0.37570634033315986,-2.0827084620814911,0.18892624764006491,0.2452558201322762,0.10259674855963814,-0.93715378155385831,-1.6740080407210993,2.6087802368190824,1.7807252244892411,-1.7156972994543285,-2.0203643968330809,-2.0189501732685287,1.1309984570268967,-2.0106490438997522,-0.29696793455491555,0.51306048350379352,0.37530898871244417,-0.83116807988115293,-1.85162840241673,1.7881750626914632,-0.56258367465030568,0.04073430096361963,-1.0086565558145453,-1.1385587070508776,-0.16946474236061512,-0.074382323078174717,-2.2390666927172513,1.06804424675306,-0.044892331799171334,-1.3812442269540475,-0.38231761092588024,0.095272355356363997,-0.77752578024182861,0.75872004836586893,1.8053806545877227,-2.0185080766218304,1.7814566660450943,-0.25808035642120902,-1.1414689836991498,-1.4186433773643474,-0.079343366302182139,0.033799366556334358,2.0497980445575568,0.78975251819222414,-1.8537762925939403,-0.066353708692279717,0.82469329908068845,2.804816842734291,-0.9862021562943265,-1.1129057413072971,-1.3795411788160934,0.64789211621200438,0.50940838428542101,3.8646438104644609,0.30723585785695212,-1.7562517782188545,0.15619167598241557,-0.033240725408897207,0.28870392342842993,0.72969430416385861,-1.5007607522342845,0.090288606308921937,0.52097340785768886,0.94126016241646893,-0.067610499384811923,-1.6524346927023252,1.0373801132910077,1.2401622768998144,-0.22718455370903656,-0.66731625550453788,1.2756396653573241,0.014389204951952504,0.71604371426021352,0.31757690291053536,-0.085020230963101642,-1.951070523684779,1.4242418847512868,1.2048640104200059,0.037633069149149739,0.27509911375427837,0.69320149569125,-1.0892858113522463,0.13258267259179404,0.0096708564510668872,-1.1716529703214742,0.18810396026155296,-0.56971669086688281,-1.1605485431590732,-0.016970532520957496,1.1811479671718343,-1.0644031786604453,-0.32060043425071316,-1.0680904165119476,-1.7202731840331802,-0.79991906757292175,0.97679686962414525,0.67649614015533166,0.49280750684941477,-0.99217031229808084,-0.28898039960226418,-1.1998665278611687,-0.28547751648541458,-1.1786607098194608,0.11128459931446051,-2.2538953851429437,0.029579294523209912,0.92632263292285455,0.54777703144697176,0.48114170479206925,0.46760576171359863,-0.83806989551502897,-1.6038590792138232,1.9926578660299836,-1.247270443842204,0.50295080513729984,-0.85408854823751468,1.4335671474956648,0.1497678699298659,1.2894989111256894,-0.42756199424356794,0.56439544198600278,0.24146321754482514,-0.12438020950640019,-0.32352225930962403,-0.077333884721305785,1.1576152085832969,1.8819916259067244,0.3150605134306696,0.019961817675171075,-0.96934351737427349,-0.49627182058721397,0.22800625795573629,-0.45862515219539096,0.76112084184221918,-0.50968201684045678,0.13811177050740561,0.50311215276937638,-0.87557054617415964,0.0082372699770527618,-0.075166774792977342,0.41088361535343426,-1.2428800534016831,-1.6705363043537644,0.71819105762896873,0.24607714855412463,-1.6535613118749637,-0.73888465855118213,0.60321125398441489,-0.62259065882958986,-0.36792796348207013,-1.5009871423755901,1.9980981894164218,0.15427142956028486,0.61720747354208882,-0.45798882949781755,1.6265679955562982,0.83468967613458145,1.1289439948286566,-0.37772250590583495,2.2784260473859219,-1.0082705841510087,0.13673692564783507,-1.1033603947653419,-0.66130631233391168,-0.60967754026145793,1.0031169220691349,-1.278817159712256,0.32086614426612486,0.90367077236649263,-0.62827695968567177,-0.38238940194282883,0.72040423997577574,-0.1823962107140718,0.21907622738187263,0.18051358216354718,0.029082831420829045,1.0642606744159633,0.12326218942010254,0.78514034175839842,0.068762618447760673,0.48142008648329648,0.24763853990206391,1.3352465026252545,-0.33572816203970046,0.24272024845917034,0.18115401308396523,0.35423700504260319,0.64178587636656925,1.3561118247683415,1.67616796713224,-1.1748833607293951,0.15956287444463718,1.2284520047216143,0.1082919065813838,-0.80118300969032641,-0.16399964119492533,-0.47203345128521557,-0.39920082393581785,1.3779875318859252,0.49574169578925537,0.79909656151373409,1.1922156858487007,0.35559244607330781,-0.78953837859398546,0.80517246169768353,1.7331821628647262,0.28895529997093955,0.92923281351419895,-1.4711422943550969,-0.39424139083567356,0.15686282998738871,-1.3595606162546769,-0.32283268337343834,-1.0629071110497956,0.79380309604937838,0.57176929873034632,-0.48557983654395603,0.81053220897078992,0.092299713619764773,-0.53846058132676955,-1.3353216268975587,-0.36374800056882944,-0.35447340663498866,-0.26691046585821482,-0.33627137397440438,0.33012327525647034,-1.0075566477824753,0.3191755939046747,1.3949335162071199,-0.28608809827380238,-2.0008985958382359,-0.30184867086626965,-0.87593209800809146,1.3744675720840547,0.68351338072534573,0.10854597644247226,0.10752812086334573,-0.91253597673844311,-1.1159250892021282,-1.2950752992847985,-0.1659593107352299,1.3662369991338923,0.62411900999387449,0.23189648362686008,1.4699385946493282,-0.48088436794407657,-0.74672045100164264,-0.59972918565067779,0.82596495317251917,0.17180573865684659,-1.130736545397931,0.13886501066389029,-0.70855153605988419,-1.2229092941991198,-1.05155612848438,0.51962191182295581,-0.16518447966099567,-0.94217224302804714,-0.57806707106607891,-0.96658365594752882,0.50995590548387915,-0.82914126189928394,-1.2949561821788595,1.0109471761571014,0.55520047363396041,-1.3228998902974154,0.21153430973513557,1.2624866482842283,-0.04536406624253192,-0.55284025613210752,-0.57650078819738337,-1.9149910935142846,0.41346199301979741,0.52253527184222726,0.5700529344678118,1.3935766305249375,1.2478654109198124,0.60849634194557956,-1.753530612629097,-0.25906134206133369,1.0220397924037836,0.13527636379998917,-0.15302823146536809,-1.1205119464287325,-0.1126428848103883,0.088153286465610214,-0.60278863854243048,0.25313604524080008,-0.098752482415841225,0.053672124260848469,1.2220828598566997,1.2428282343753949,0.21347664694366161,0.87895389581239902,2.2664216516902171,-0.30910512981416577,-0.84515211526276268,0.075423280541601537,-1.3478657693429767,-1.5211972256576618,-1.0644916368136381,-0.24236593695761641,0.5736983233537255,0.42814018467348564,0.56339584336270943,-0.99016624126660591,0.11189719685705807,0.087541074829277851,-0.12306346076524843,0.80028248967249982,-1.4675666806949461,1.4913568103874051,-0.94638737052703148,-1.4707234859087577,-0.58368036509755949,-0.24395882245510195,1.5358768891971397,-0.34415175758335292,0.70219128511023798,-1.8520720733024034,1.4750630052889508,0.50016842918333815,-3.3460918775817179,-1.1775914834982004,0.55316979237047548,-2.4479573817263125,-0.066289468379013033,0.71174285688749428,1.3117800495843015,0.49302556026831429,-1.0786074425691921,0.38651595420813079,0.39422478890410034,0.027754102067365585,1.8356357459222514,-0.8547370967936333,-2.3743362999252358,-1.979497542776826,-0.72242819377631018,0.43076157659504949,-1.6024736768744732,-0.86206704013679791,0.94564105962586076,-0.76748725261933004,-0.85131086979594484,1.5141236219719498,-0.99795770046354204,-0.87549922927244839,1.2085982704955831,-1.2728614956722346,1.5300769939925403,0.23450322894588932,-1.1450263919731629,0.028187915308794324,-0.95910453663994233,0.11164306307711029,-0.43449394970322242,-0.070687803882531389,1.578070896826516,-1.9468549801331518,0.64725350899994472,-1.7475363850391952,-0.057614111378756078,0.34200376269908322,1.5975289847008589,-0.28259939928603772,0.33944270517174474,-0.14427772385435489,1.1271225524554658,1.3801361334896936,0.98674799014280112,1.5194413967838758,0.64200894372018091,0.82036971565858419,-2.8053857580860981,-0.11408422556519823,-0.94798298828339822,0.13847461797463326,2.0055525480061829,0.26836154351664604,-0.74239012070410759,-0.42317735676224832,0.71933917594519114,-0.83977819495179473,-1.1448547830682496,1.8928604597688532,-1.6239732209494575,0.40397759593248334,1.8635996370575931,-0.90608141514945162,0.2775262084474221,-1.6611702677257969,-1.3356217147965515,0.94892338125212461,-0.75581580950830574,0.47079234634292422,1.7692794947599952,-0.063149657124884323,-0.68887700048775324,0.53461176315539038,0.35996239867666646,-0.26376195111342648,0.54339277775613537,-0.0095393727035997349,0.046854211345515172,0.18719883507957524,0.16487762218799576,-0.048139283300826258,0.023806875707656949,-0.57996127917799445,-0.62597545982514635,0.004492802903159383,0.45670672535001994,-2.4116178087176952,-0.31049460960371883,-0.82058783149086467,0.17040904866409287,-0.61310084553012423,0.022286214374029976,-0.38550894601365288,0.36785334102065659,-0.43433717539610595,-0.011718086561887869,0.51186944467860229,1.2708346987503267,-0.21871625359853639,-0.87825159148532084,0.70142158354499484,-1.4268120384755421,-0.35054799444561413,0.81653415951256147,1.4353120686070633,1.9464781810724483,-0.36571458018595543,-0.9856082010308832,-1.1591554973333316,0.46127256084511087,1.8203072518006111,0.093322668769080769,0.51584858264269295,-0.67212455361022194,0.14524295452364591,-0.64283988124128366,-0.052466797864955318,1.4927081043658235,-1.7440737122159191,-1.9410626002660412,2.1261528216557162,-0.081620594525368614,-1.1508401083811863,-0.39079475729771945,-0.1584376243622217,-3.0837010223324119,0.44120117054792624,0.3967979519161155,0.75299635792997877,0.96788037167279395,-1.6939838912679059,0.17648334568831855,-0.85602597147767445,-0.75183331351663385,1.6235800324722514,-0.88989334853322899,-0.12892185111145651,0.8023764408503965,-0.14710507332095729,0.15427681539456115,-0.27142724166829563
1.1266166677051457,-1.2047223491814558,0.91835103623722258,-1.2579313859950016,-1.1118120159956704,-0.20537972003502064,0.20235955991204502,0.95854566613065884,1.2200608011885301,-2.8966550221338858,-0.27678957779750274,0.09541965980954778,0.5551154330297654,-0.32071176461402934,1.045024294356335,1.4449444024633167,-0.074852155105215729,1.4691886344617056,1.076532678335401,1.125233032315915,0.17075822233019236,-0.81450199010194013,1.8025516764613856,0.17707765702439021,-0.47146340775446888,-2.1273704723580007,-0.36977825231287942,-0.73327632314853097,-0.5545926073297005,0.2581674362037234,0.16905279624440481,-0.98225950244710858,-2.0948346875869124,-0.84695697104980405,0.55762340717618541,-0.57435120003769957,1.9099733030488728,0.12985845889134634,1.4687050804813326,-0.029874651022273609,-0.92448905049510299,-0.64803584255179203,0.79659245513055876,-0.15228913768135652,1.2488244298146827,1.0244181591152199,0.4744715028447386,0.19332836229134961,-0.13436389914059416,1.882990938449794,0.348925745247193,1.2966652880042364,-0.60115556968763384,1.4843916805177437,0.50239831825025194,0.47067049395260946,1.7791072367318637,1.2134484050585623,1.7471441644506478,-0.41341126834537129,0.55185758812363184,0.59749188118823593,0.019613187541837378,-0.36782619346669115,1.091732108795388,1.0333873467348913,2.2921845700093844,-2.0686137730264393,1.0539147453870428,-0.69912286025857562,-1.7078592062042917,1.3784045290343527,2.5115693049534351,0.60387559435261695,-1.0012647590112467,0.70792273636654401,-2.4252003424160202,2.2996292213739098,0.062795584678469546,0.9880063593900148,0.59581090980502338,-0.77737352933166393,0.19113052091469127,-0.15731094124254716,2.0179519984779946,0.75735137084609361,-0.9091256344529931,0.17264036206114952,-0.73267634293166928,-0.24030098311563927,1.0244032591481411,2.3335152312524481,-1.3558083022469034,0.052631051989293888,-0.22319549898608446,-0.59612932053598133,-1.355745272408402,1.1180320413028533,-0.969074065455242,0.71846879002000108,0.27176992289506019,-0.43424513927566433,-0.1440019793221026,-0.86565135066729371,-1.0566623797021133,0.46896981992379239,-0.11898550473846248,0.84655955065050459,-0.24230639874468235,1.108725997892047,0.19412016697145734,0.83412885918293567,-1.4135393979255424,-0.47304564017519657,1.6673880557808252,-0.81499409087753627,0.31930486643611361,-0.0098714886577947383,-0.35023480575687754,-0.78376176625270022,0.72481403221809659,-0.7428761598600313,1.2545808703279409,-0.44329755791870262,-0.40109372345918193,-1.2986144069799881,-0.61059032457494677,0.22266144168533356,0.79159613925133088,1.1855031432042844,0.33537982048180304,0.60097367254942757,-1.3836480804763986,1.6899098325852611,-0.68387625645181593,0.41088780174141826,1.033157295760756,1.09215002055851,0.75738225624989775,0.34600083182582797,-1.4030988843362089,0.076951368454698701,1.2730339796588495,0.73031585702207735,3.2260838274332424,0.50188814577195828,0.084155139521287059,0.46109144730527196,-0.33853921037472517,0.64521259753315308,-0.40435863040207137,0.066922916382843714,1.206924212179092,-1.5088721502830413,-0.78202864702917674,2.1292879041203228,1.4525176623844758,-0.026041686181547893,1.0999859763459598,-0.88504543608761232,0.097113000107475811,-0.32214281467041456,1.3194356047657232,-0.79802880822152333,-0.72180920796385761,-0.6855100281369817,-0.24331142295642158,-0.13912786170242988,-0.97461604101982857,0.0099959659501669199,0.12414918657216759,0.42480913151138022,0.80058474147729863,2.662942883796402,-0.13338061550855621,-0.54132509897037406,-0.66779497741127325,0.26298895655278359,2.3170199423639581,0.048414032362096154,-1.1446382608651622,0.15253835570111501,-0.10608130790295153,0.09842983387490134,-0.76921355684700476,0.17797244348728725,-1.6270791702336458,-0.26396600515534135,0.78172901950004825,-1.3209633094708881,0.88145882971543443,-0.28582287595009442,2.0633336010942003,-1.1398017816687269,1.6433552503517801,-1.3318612097964087,0.1200216085796969,0.84555366573643576,-0.018910345021904362,0.57373604744765505,0.50620433274761523,-0.36225675118264722,1.4749138870775012,2.5754395056270423,-0.70520420605938494,-0.99719506436402494,1.2698428205309804,-0.83170589870668998,1.1775323916321991,-0.18222651350719613,1.0572016865184202,0.13136178077356742,-0.69608158003551401,0.10715738164090201,-1.0612423135044504,-0.87993747533278543,1.603343825376438,-0.35141630086797565,0.51629722871253458,0.52999006968465467,-0.70350829450953056,0.54713921473883165,1.4212083157649824,-0.023920771827548384,-1.1370198188215717,-0.85662726908954367,-0.93024738298493559,-1.3746609042419118,-0.79246587160879545,0.58944128419481245,0.14059087792043787,-2.1022642737376955,0.018284386901565145,-0.49629638350020527,0.73397639616512478,0.50584625636115699,0.088974042647292972,0.55141531479646044,-1.4846049610093566,0.47547459047562407,-0.39367263511878492,0.29147749478779122,0.98214357750356285,-1.7657803450531036,0.34018347180041475,-0.21511546378732893,-1.7366672001531493,-0.44122127750071444,0.13172970992209085,-0.83373340066912827,-2.4502724553398236,-2.4150771373595967,0.46556070381036441,0.3202025484786748,-0.53060903044164598,-0.93523170904933395,-0.55726002661666652,-0.59924317076008371,-0.05851388619311898,-0.10608835436841481,1.4610812324737528,0.43774035073483347,-1.2564025885938959,0.81136646491166375,1.6054331189804354,2.4764449051840542,-0.19491445762453408,1.6682197080356045,-1.4644208019539027,-0.13692672572688661,-1.0835520195120014,0.40265532072036697,1.2143754201622543,0.44635075947071212,-0.73164261435493028,-0.91909267998702338,0.23875814449298333,-1.9235021697882799,0.29891705261263596,-0.24188507004260557,0.45038800440588839,0.12192270679357961,0.55828920571918739,-0.42496909427728147,-0.43014295665915686,-0.041444026457346295,-0.051562108495493461,-1.1861570656118285,-0.2913282080020364,1.4285989153009113,-0.22848338377899166,0.6290992282213167,0.95438019363831905,1.250318873938995,0.15118591550562324,0.60094518019755794,-0.5035373327489101,-1.7784871448580226,1.3797722700290116,0.43060901538583385,-1.2184319566319193,0.64106225847964127,0.63988736925944611,-0.11063522127254187,1.4863023909734414,-1.2614211158095219,0.20782973074443806,0.44819901095462389,1.0137704468052389,-0.34653703744660685,0.83405730242468668,-0.067035185590908972,0.067705083718025541,0.44859021800410404,0.79814935555728561,-0.29392140028769004,-0.33911189749251858,0.65509305603385903,-1.1046804090506781,0.18161425650598922,-0.070204252282562968,-0.019198185633694072,0.67718841426568577,0.22356437090427436,-1.3972642363780696,0.608672476023005,-0.89219164257114936,-0.43174006495152345,0.071316876174870397,-0.26349632751105262,1.4635478864320566,0.54160562873548546,-1.560441363924169,-0.47243255638312454,1.1800192452767366,-1.6313953263677252,-0.075171339399442885,1.6503846550335084,0.57254281386815298,1.011513022583975,0.17293224580457239,-0.40731935908405903,1.1228575552984095,-1.2951320850279662,1.0074924153162141,0.3266909580277369,-1.2290935963348857,-0.30942826135741858,0.4228090530396254,0.1414427206811775,-0.66899803734828645,1.1540715107524881,1.0213678169043019,-0.18999904129807912,-1.3730791229265009,1.5038293222980503,-0.91801131673304748,0.050591516238796028,0.38432497160799323,-1.1198464167380953,2.918057211317977,3.5621035033797086,-0.67909194049850696,0.45970956429587934,-1.3932135398120993,-0.57366951708979874,1.2241419941121583,0.65751317938723586,-0.082087465697949627,1.4349818523266245,-1.4119968935828646,-0.59480369783884857,0.25677551036890933,-1.9241270612854842,-0.53926042080043601,-2.7590265049872036,-0.85459100483767292,0.32008206552125212,0.45584192625558023,1.3813130297149645,0.36191202772054953,1.0301980892021612,-0.43873570035321535,-0.12683435795911752,-1.1783736206566116,0.65139502267824323,1.2715872668391257,-0.64164103577603915,-1.3832359065169249,0.0295632305149067,-1.0693348865104229,2.2482466488653037,0.31711818443549816,0.36054208164462886,1.2599365423886937,0.43237079500414644,1.5412243296181001,-1.0632793892491563,-1.3057632622947313,-0.15603645675513653,0.29087258290582202,1.1610071340970971,2.0527581567137334,1.8078968379535543,-0.22085481387841133,-1.9563143923346551,-0.95951403229762389,0.43806628740690062,-0.55023515884373153,-0.15555236701826416,-0.3604042964368408,0.23839217265013313,-1.4830602138268367,1.0060305532989964,0.91329140608397752,-1.5393966361289126,0.85595284913930336,0.40479889659508789,0.25682625004425003,-1.682746396769836,1.0713249343155076,-1.3493933667799927,-1.7131773888431705,0.60756865684119676,-0.65524053891924394,0.55478887267329324,-1.7331352477445787,-0.051735619354985718,0.67806739563774687,-1.2792392095989633,1.800925746016089,1.3705244151028195,-0.19067186097896849,0.03244208189103006,-0.44422519446201947,-0.25596751280064833,-1.9929356236604374,-0.48504913311389447,0.081792121887652017,-0.16198499958034673,0.17194203702788838,-0.9647919553044253,-0.58973578468567411,-1.1337894591363955,0.72848235173568943,0.3168896979506689,-0.65149689327871496,-0.21179626259883347,1.1820776560218271,0.17062696591490728,0.26619960756275557,0.95661455854165023,-0.6291973879030579,0.057303630213625646,-0.016235456714890472,1.3011714598079687,0.83762656927159185,0.039960972124655887,0.56965261413008184,-0.52916778038420986,-0.99391497968980291,-0.67765680801531369,0.50227889279448834,0.50171550076417426,1.0439851189259202,1.2352411961835068,1.1079244509980013,-0.38552856149329939,1.7211454195080691,-0.0026475551993469485,-1.3162861867526079,-1.3098267086933155,-1.6347732945366562,0.32556222027409948,0.44971534162660598,-0.27204531272757654,-0.13267297910031306,1.0258381606054581,-0.67910305437446172,1.507558759887202,-1.7215613475547986,-0.20126917915853593,-2.5662238490483524,-0.16786194610436211,0.55670304363389223,1.3305766127148779,1.1061665729610335,1.1125135458241917,1.6842225249937937,0.72026585921025688,0.60584001570564006,-1.3232806898809903,-2.6696629704188926,1.286008374664793,1.8936865346269829,-0.3661180201055978,0.41944356989911513,-0.59261193305463189,0.88962081274669935,-0.48736703746496662
-2.0545766032238251,1.1834953828603874,-0.2941002250513729,-1.2178463532012482,-1.2168015981446449,-0.82163562166448434,1.7578061693206342,-0.9517647573427036,0.28466235838704945,-0.76390361922015182,-1.5297161305262597,1.3172163562991051,-0.95844068102056712,0.44006197219385257,-0.82019761914349809,-0.55006165709252841,0.093977249863238188,0.21642557533755261,0.039126833730759328,0.054474584375287023,0.15524923736668236,2.031354878123552,0.15332914554443552,-0.5305262708562728,-0.2549035928425108,1.0941495545060433,0.23394407419763483,-0.076760542176006141,1.7377128770779171,0.56183072695780589,0.055063046895984513,-0.35175093930043871,0.052997992140841693,-0.59866658188196809,1.560050904437587,-0.68376373062243856,1.4688886842914033,-0.14477087908817227,-2.4931826858143626,-0.82630787422947138,0.74513652764622362,-1.5989424030981332,-1.01751739670491,0.62544831353828256,1.9416732592942558,0.03974668241970454,1.3949631936928282,0.57820452097070851,1.3480906657496496,0.18657700495034998,0.29426894366654366,0.0073196082581654699,-1.4474972069871581,-0.49894939455591464,0.97711270964268604,-0.30973788834682975,0.73924819073461323,0.81718750671477425,-0.50274401857963846,-2.0281441761941807,1.2980183184021501,-1.19108201052855,0.80208480780917468,0.24834884596045786,-1.1118619422787386,-0.68458305637232586,0.83632199169979438,0.19428403638968403,0.45210294991276179,0.55862079093114614,0.18367530588076697,-0.094866025035334658,0.76306581719887046,2.9819152407002827,1.0132839617062654,-0.80647269957048362,1.032939810711045,0.056985344442029733,0.17753171277084071,-1.1379349942958679,0.56991209786521912,0.68268269623877609,0.61063556087265258,-0.98453780326127194,-0.35920430692179228,0.3666336539395566,1.0593232659350738,-0.13323109877074651,-0.86954649204995782,0.44101125673482505,0.68162132074479842,-1.0755326185210794,-0.039473226059513124,-0.73247752367313557,0.3233733025233782,0.31378075088787999,0.053788835785232775,0.75347817623791158,-0.47004903443658391,0.20743342831749392,-1.0862531364169212,1.1906478690292808,-0.034874207744824658,-0.20065868741204121,-0.59871419014466509,-2.7691984785797916,-1.6053990547970465,0.7306038140171266,0.0024300988235140758,1.110764206822715,-1.2704193109293558,1.0861624119327009,0.18232665938251419,0.47166063893393972,-0.25307769665295593,0.78214212348285361,1.243365293695434,0.023349768376576971,0.50024979576220641,0.79470920077161955,-0.4861329397333834,1.2454869279282474,-0.24025154210434488,0.22742558154783166,-2.0621649349232252,0.36665931830459025,0.12947669731106382,-0.43958129238384935,-1.4247826402108201,0.40440277862914131,-0.24949547511524897,-1.8007445091760725,-0.022079267716516748,1.3782037113813026,0.4721932907360577,-0.039444799438374548,0.6127629602460245,1.3830235848262826,0.91846963663826819,0.54111975168470405,-0.97025245079689926,0.13594993100428585,0.10023834095928577,0.0012112906057583129,-2.2003390337469182,1.6959900932148009,-0.070085958818188118,0.81361688259275333,1.1256268075463407,0.14080639585565893,-0.090823736102184277,2.9232417705453351,-2.1942655376381075,0.5865026371409513,-0.69663026873512579,-0.2717764515774076,0.017025847623568364,-1.6532856004584571,-2.0308788366369526,1.0338589858854037,-2.212372854800817,-1.1372764158714141,0.13099402023332132,0.41342938418577974,0.5750947174312917,-0.99941816295908847,-0.27026671880994108,-0.27797467969232126,0.16958956972774658,0.88291850232479696,0.36018251796072814,-0.87537904136286959,-0.45278074586389205,-1.5563729927049963,-0.1396079072516111,-0.12466969386965222,0.81741833890708027,-1.3931007457915681,-0.35373790127403276,0.97169961382998249,-0.23530692829524433,-1.2343947123749084,1.6330612230898776,0.37175965343075612,-0.42855647284596599,-0.58031763766076938,1.5308297542518932,-1.0600275585706538,0.30292195034798719,-1.2207983653697685,-2.5786246822068164,0.98458184227658174,0.59636275083773149,-0.79516871983009563,-0.39871775448093177,0.51470176621236741,0.72934726036176101,-0.055766183721188925,-0.54616953371611476,1.238620880574326,-1.1646260629373295,0.68758153055072946,1.7493892221316367,-0.47733223737878522,0.19739339463785843,1.7682660099812602,1.9396699506630393,0.80954329909703726,1.2939686844540694,-0.73341979292947856,2.21515000046724,-0.33753095637528485,0.82840989359821504,-1.1318697240857947,-1.8444656439462441,1.1066103925252178,-0.25524705048047946,1.0602350572917847,-0.39838873166824967,1.006955696711348,0.1944639834580956,0.31042420167549145,1.3873340635328237,-2.0478551382952417,1.0539805310003316,0.645654776587686,-2.6333812677812141,0.92163019005696578,0.89252385740550544,1.5088657208945317,0.025676066516343719,-0.19594316437504067,-0.33748425103350355,0.21653830102420496,0.62793205332455171,0.60985342760342509,-1.8908117386061063,0.38141619762920198,0.11021874125613897,1.2043788257720358,1.2201737834738362,1.2300710935202517,-1.2920090645905955,-0.010699140898964741,0.45044718649829824,-0.48119648736705267,1.4890126466035518,0.62422433452236792,-0.50516562824581102,-0.70738660814879717,-0.21871671141856963,-1.0225582332729783,-0.84287123069040637,0.57355133480072484,-0.72524506076625506,1.1665932163531911,0.015503208719369674,2.2971931111834638,-0.68422313564604631,-0.53653460764757333,-1.0501641650084874,0.9818325135529562,0.080164708780389615,1.120331167037286,-0.00048003928015236331,-1.0236222375714557,-1.0641756629434855,0.4112911032612746,0.5451177459089136,0.596292611909089,0.95390526522392227,-0.50910562360767753,1.339300705369151,-0.45917565822649681,-0.60663722089502903,0.4236801626678216,0.41005930895060083,-1.9689331587028078,-0.017196925904458871,-1.7221506870833285,0.37522850628648186,0.12115884074106019,-1.5781728987424697,-1.2136343600659589,0.093807177135757078,-1.0803399170202419,1.3655421656666471,0.39587422492861368,1.2151202932184315,-0.83593600993847039,1.3205560853758285,-0.054428474326689888,0.50107446214563967,0.96288222307070004,0.83253715558622965,0.7165211175460986,1.2980951609312747,0.26884081441403712,-0.20672501225551218,-0.00716802761990215,-1.0471273416060149,0.569888768805768,-0.5407600568273504,-0.53028246410716395,-1.8729143634461232,1.4646285805513484,0.77043462185650613,-0.98366304530067517,-0.21487667137346658,0.89382178922862943,-2.0140390210908499,1.0068874020472074,0.60206567787471765,-0.38022963355441186,-1.5904259815736275,1.2668624377166069,-0.52934878437196753,-0.76719728052830294,-0.90714374618758531,0.30494232174879332,-0.72226604909175018,0.49865393860881785,-0.074031767287414244,-0.62340523625289523,1.5614101492591836,0.12766862873770088,-0.12300799321722328,1.5965188409790039,-0.11678193974586538,-0.80355881793587347,1.4853293162325201,1.7082698343172571,1.8030411993094093,-0.03438821755349205,-0.80887996777599891,-0.35557303749336233,0.26787073448160509,1.8918412535044775,1.5325664834649741,0.30106453587573639,0.077043403658799151,-0.41349121446010279,1.2250407327156825,0.49555079299564564,-1.794166759693669,0.39061862255272789,1.5537552714985339,-1.752234960622876,-0.17759718590776213,0.29429496939843042,2.0931260441735997,1.1444768429318335,0.24841125776219272,-0.013177135730602424,0.66650054392247793,0.1728155802365948,0.37062786195206854,0.40921309523738308,-0.836921386976341,-0.23135646081329311,0.024487524452993372,-0.16443167828757124,-1.2863252727931282,-1.2991397278657273,-1.2892524923331949,0.68868595905580365,-0.57451078595934102,1.3414798551001152,-0.69213619497737344,0.092623433256237189,0.29516204680657465,0.35855778343559003,-0.30052972209164452,1.6031390424728358,0.51027392366195201,-0.63999642763764031,-0.39361544710860641,-1.2381921896337809,1.9257100740648301,-0.49311104823735374,1.1478194249900944,-0.356278271107688,-0.59707969538578776,-0.57872488885216267,-0.0096580992468250724,-0.31798837203725949,-0.23322009665528781,-2.3723569789910077,0.43441556672306147,0.010667618710063604,0.39331057815519799,-0.47728638999250739,0.36494751999691699,0.62497830805548249,-0.088819187238271188,-0.40356577654178483,2.0680041685365582,0.12815595788895065,0.61534175533318158,1.480376227744177,1.3308132677823363,1.3871803172579242,1.1569819283158571,-0.45148797862600654,-0.27998397667119673,0.14194035271106803,-0.81562286925134397,0.49534445148856848,-2.3354154141630636,1.3406993681913957,-0.65557379385266412,0.58912168159241551,-0.96973942679145153,-0.2071820301453394,-0.22098422289443509,-1.5068050857918946,-1.5591264271425946,0.75160670008167263,-1.4669742489969986,1.8054722116038826,0.332009223027939,-0.22966864766685946,-1.209438335595344,-0.272602284282498,1.1342275236680464,-0.70449204143812238,-1.0124888337002433,-1.0269565610916367,0.45464219591142574,-1.7495554274051874,-0.27950804206933416,0.26789233761161929,-0.2313017498167686,0.58096496543177756,-1.196166913292825,0.37669325952897981,-0.86058988384306767,1.2197432446869509,-0.1094145201492535,-1.0338022835833871,-1.6222202741026264,1.16034667346598,0.082241052522560171,-0.72065208874139641,1.551651126565873,2.0356228127828939,-1.103996987529233,-0.16912066599219713,-0.19505745449689132,-0.23596532797651432,-0.49590171034275948,-0.2954399931214306,2.1393343633876931,0.74589636740713761,0.10386692305352492,-0.61637022366445715,-0.57111028575072986,-0.52513112126285832,0.36541277742672196,0.14977749288904255,0.55655803194795916,-1.4269416880769403,-0.91143008691851446,0.18423539458025234,0.6356757357186047,1.4202838328471314,1.2597641601964575,0.41420038490011796,-1.0940536076754621,-0.51569060915461951,0.35056031839888147,-0.34629512621601655,-1.2551022022982943,0.0047072262915088918,-0.74161185706324217,-0.49379378939060098,-0.63886779686157669,-0.056147189996613181,0.6683248054273031,1.175966493170832,0.91168143003557101,-1.1908121150400062,-0.60390466629387163,-0.46447551030573492,0.49436230169685758,-0.52173033324140627,-1.4878279902355309,-0.59002618775743187,-0.10026679999731747,-0.1723914431713682,1.1862764969712787,-1.8467248246664481,0.98896039862794549,-0.26066623521531357,0.65018648400203771,-0.21049398946781772,0.42904997156936486,-0.60324043212743517,-0.28339830943214767,1.6866204480801177
0.43454929828778971,-0.57615709080088673,2.4015733570709972,0.18834242453549127,0.51874747336096649,0.37790451502354999,-0.7011750484041388,0.22327132728124571,0.79394550899882221,-1.4638032814356827,-0.5489598498113426,1.1646890676371213,0.20564352027522903,-0.34690096396626008,-0.39590461401542404,-0.04733331677182704,0.72030899466973597,0.80937186491732693,0.65127621365701716,-2.1642671527742108,0.48541629319036872,0.6629276982028135,0.10604888792137235,-0.068216551087994723,-1.090755379952284,-1.7572943143991542,0.1017232063825821,0.93563164503960539,-0.65074484251296805,-1.43227098092897,0.044015047610260934,1.7930521686649634,-0.83654372925440734,-0.84241872989623656,-0.43474747644385742,1.3119919822931334,-0.50665661984729704,-0.15724341434274347,1.1499176805944078,-0.15056509934773354,-1.3070781737879116,0.51564811585459702,-0.59044276756821135,-1.6518023525114165,1.1618296298746902,1.1353539790212652,-0.62591726901381251,-0.060698412694180463,2.0238303689762058,0.09775527296765972,-1.0342524628870429,2.0999841143685343,0.33986110871725927,-0.14904220006936481,0.1755482518400425,0.065284930616799783,-0.61630887728887251,-2.7280935950478429,-0.0019386188964706536,-0.42702057562462176,0.15477621653679949,2.4524310536042702,0.29165172554350943,-0.57775732232433918,-0.75652714841363444,0.40566110865149779,-1.9464766731588476,-0.38246363263905003,0.029427637772905527,-1.0678212360591859,-1.9752344549141312,-0.5365019902157887,-0.30311701690188952,1.0775579029210456,0.51659688694857508,-0.8398495156920508,0.86207701584866236,0.27450654351047366,-1.611403187316105,0.75898554017838415,-0.94196418013031069,1.8480744599632735,0.39165257988983193,0.81369524228449941,-1.288798354343053,0.25724824365497101,-0.61533754475495384,1.0476567588755337,-0.41051952001242076,-0.10625505086346008,-0.84871943519846726,0.4580051489151995,-1.3242540735460859,-1.0901365785811867,-1.452799610899594,-1.1848477988650052,-0.86911945264022317,0.13613328455820006,-0.99401878583588876,0.75907151131516915,-0.19328734019708274,-0.41822615853118589,-1.0396459401210632,-0.14413766709097206,2.4560641891687007,1.589480811627523,0.2748432217368505,-1.1988425044172204,-0.46292391913770425,0.28807574258114521,-0.72533910867751517,-0.35440077879490745,-1.710870253651227,-0.32454017328364243,-0.82686085347097293,-0.15203870469953062,-2.4193795954099335,0.58747920379836716,1.3646217558705203,-0.31678008223192944,1.4221508264175085,0.73568261258123546,0.95828439082603634,-1.0410525495367167,0.80823294371580268,-2.1323284863257514,1.905305100853941,-0.23216445981040656,0.5352810765604058,-1.1117522568532892,0.70663642423550399,0.56847635910546013,0.21424025052250736,-0.8456613910601174,0.54395427293767051,2.2278139436336573,1.4176137145213878,1.7359235045554759,0.29827312948360957,0.77041967193737737,0.10398587892037671,-0.37141205510127295,-1.1328395783333383,1.3443965579653849,-0.3169518397542439,0.25329653121193707,0.27649477372318759,-0.91208990211930385,-0.1381491537295462,0.73754837515307958,0.17937147091796277,-1.6202986048220041,0.81844313400049562,1.5635748028319147,-0.11196931985324339,-0.36633648934249013,-0.039782561855113141,0.049587797677331687,0.30006344379320993,2.5754493655401558,-0.12383927847345677,2.2071211017786068,0.23419333243859955,0.39684291982090991,0.044652837328285448,-1.7982797539220512,-0.0090534485174586597,1.4461644974740919,0.280955212685286,-1.5682928857738538,-1.0037793688041818,1.1618686975429438,-1.2187397065361742,-0.31280508759022702,-2.628606163732607,1.0691346976310656,0.96751673620897705,-1.2098995689903282,-0.25937052136513317,1.3860518241836568,-2.2171199454057602,0.0033736075524199113,1.2743677494395864,0.45874123512802328,0.29787944915994347,0.46791605827180888,-0.59682404837939207,-1.3266579966104401,-0.24950225293646283,1.4294597300334591,1.1853041584803399,2.3633080362025392,0.1563572582926564,-0.075829818368890009,-0.8066296795872383,0.026146468703444812,-0.8569178406082324,1.792112344710685,0.065641889509660281,-0.099340598258564783,-2.5507402776552137,-2.1170220243985041,0.33936964625272659,-0.92120857546699131,-0.56362266205125044,-0.57136465977083906,-0.53092574665668424,0.20765131698094863,0.49009109298245718,1.229981941732105,0.52953361818436029,0.98300208172752346,0.53657923305025323,-1.2655229518028825,-0.68445309285945855,-1.6404559760070256,-1.6867531180019979,0.092369473078918948,0.26235427651065452,-1.8931194154179574,-1.0234365268394865,-0.1808576261516455,-1.9286669855214489,-1.8422687621804239,0.018791180977790391,0.8227931459415242,0.94758284490943245,-0.91928031583734515,-0.24025076229220307,-1.2089453960011891,0.088069162724894762,0.87587521308452043,1.2951140513156123,0.44277149325627257,-0.45103132341187702,0.17224585052703195,-0.77695757923728426,1.11039714148925,-0.56612729144965213,-0.75777169388198284,-1.9518960261933538,-0.43223227852410961,0.78307908039705931,-0.54852436623089096,-0.058491689879204306,1.6012054166766991,-1.3005158614177792,-1.4747447705194436,-1.0476626668086946,-1.6175306045314972,-0.53301594422076171,1.0444952554403848,-0.56732483383838428,-1.2216294386874458,0.85026439642099272,1.1183047024256469,1.1394612230866337,-0.090498991928850817,-0.15712016800223058,-1.9360169215597223,-0.89953270263936069,1.4779592433310507,0.41770066773239733,-0.62585878461732003,-0.21416130911897396,0.050167652333236029,0.125669590962704,-0.40500387697745033,0.77430785739415264,-0.76022291467344294,-0.10500235563225031,-1.7976685565157224,-1.208988866952279,0.62678411785035437,0.54038689589108124,0.62221862758653113,0.46719601526051219,-0.55001697881624134,-1.8570445098701882,0.19122753700403927,-0.63890590779712431,-0.8304335183632644,-0.046607919227705928,1.0716307675414842,-0.04208188300640734,0.27351731453372452,-0.56003279039550191,2.1763368763977997,-0.85843875004997794,0.033385024166291521,0.34412002839999101,0.17761781929028717,-0.44757356957898892,-1.6663187758615321,-0.13236426788840008,0.4536681391599644,-0.58405764462952436,-0.39987231394277789,-0.070922246975433326,-0.61835171673011746,1.1364225259735519,0.26996854202489989,0.54721074536184189,-0.38771422313810044,2.2157321120926525,0.95750848896720897,0.12788283221981755,-1.0860210750355701,-1.5714773897276189,-0.4465700080029904,0.34711374161351116,-0.48744903454160698,0.80453095998811819,-1.7155960392124334,0.30567047823608645,-1.3336036993745908,-0.27311479072155281,1.5086636793054318,1.258216289742665,0.97199496777061578,-0.66061585493018915,1.4753988936088811,0.40434545621401946,-1.9801430223258478,-0.50314516035473822,-1.174109311248692,0.80209683675003185,-0.14384936958667241,-0.32182975183626322,1.0814173837230612,-0.08135575717332752,-0.68324270836484458,-0.69438748625780189,0.38189328655803623,-0.93566540096931772,-1.1634051598614952,0.26110855157893104,-0.79447276425476043,0.69357740963037839,0.091292840942743994,-0.077180302391274117,-0.60341037158768585,0.52476451784877065,-0.91889640717580134,2.5639488747097476,1.8166918276299797,0.19983431922143421,0.61050215671218,0.42250733735327511,0.11451709026695613,2.3323370333306412,0.66384582980170237,-0.96374682212271523,-0.018417842839203856,-0.60697180949193386,-0.53552861466524515,0.1440294102184829,0.74082089377466243,0.7173310044383846,-0.031584511237350149,-1.0213644298036217,0.11189714393754514,-0.59250615811380025,-0.66587266466426909,0.19176186631407996,0.88966743977261209,0.51413706136964044,0.36635856648505516,0.3884435801026086,1.6785171579344949,-0.039497083817038765,-0.55753088931959627,0.44697299466587159,-0.21191649861396758,0.097653002109667361,-0.51773050465067094,0.98193302738292176,-1.2339543898429688,-1.4174608223796192,2.1398945108584102,-0.94900319157525648,-1.8469377168650307,-0.64863467949715925,2.0187930871559363,0.49943909227897426,2.0762196002017372,-0.89804119732232579,1.7785507590374123,0.015894249897110909,0.68379789526836776,-0.66099307611864022,-0.047273762645427507,-1.9955947913748224,0.91059544895320432,-0.24030509206289827,-0.081069052177376977,0.57610489593255598,-0.32619678014203352,-1.5802481426946438,-0.91687022778318716,1.8563962947550734,0.090405744686339051,1.8974561239177417,0.55660244649938517,-0.45435192224431448,-0.7186185116788022,0.91349126125341829,-0.66280918129098598,-0.047730341414935609,1.7267369891983642,0.46056999881479266,-1.0178001857005552,0.95997120119020263,0.84569052808340017,1.8022917897770729,-1.1378092452050466,-0.13949364723698662,-0.64766002907905562,-1.0970762810784704,0.48587305522756336,-1.0658226557216459,-1.2520425362931416,-0.46405991179107642,-0.010546899154480283,-0.11298720254992635,-1.4723337002674597,1.4523383919992447,1.8038344188110449,-1.7915110680803945,-1.5355819390312775,-0.78877367146376332,-0.12215235475230975,-0.091712718493179732,-0.44412480635081625,-1.7234874516949628,0.081462136567922838,0.21195292934397819,-0.13738478721711184,-0.14620645801503612,-0.52143348775975884,0.78415556771234662,0.42234384281762583,-1.5590812063438098,-0.23702618912351184,-0.19641584370368018,-0.006375476927719473,-0.34302204635103173,-0.12193516662564517,-1.3545072724134219,-0.43900297955962048,0.67362707356024398,0.5448080049352253,-0.41328524802916627,-0.45212726275848736,-0.70055701771628121,0.32463534606055888,-0.84509934426859179,-0.23335775162621661,0.13035084282875653,-0.080731687698100463,0.62326145331141247,1.0987286350478358,0.22613841693815095,-1.4712510029042334,-0.17456626245260967,0.52659146545432056,-0.99291254206529911,1.2088762758548173,0.97239146726279924,-0.3438324704243621,-0.5531534549196252,-0.4671499897062279,0.45529940469112595,0.73926905546381771,-0.18483311016867437,0.5200790822398812,0.13004921106519082,0.91231996166138984,0.41536968008663772,0.82039930143727535,-0.13182909898401363,0.84778220988549635,-2.2918005901324441,-0.19223061027442706,0.42092506149276576,0.63716952053352649,-1.9345492867391527,0.07845686451221616,0.3335820401278134,0.20110835353689549,-1.2477753657982167,-1.2717782323074374,0.85588822952603871,-1.6163801009752763,0.10830067573725592,0.32690884006388554,0.827095179433598,-1.4559037639494419,1.4705371232496558,1.2491713196792256
-1.9860672237009522,-1.4122507031625688,-0.40584040188136317,0.97840661285414765,1.1804532089120203,-1.042373120710429,-0.25991367951185895,0.69480048737424571,0.40499186329132503,-0.030183863897373292,0.5564868076181545,1.6733575718106297,0.3515799847884849,-0.71213040013559403,-0.73042598856120333,-0.08391031181905069,0.138707723398243,2.9430071080252098,0.19532010120560622,-0.44172330206288085,-1.4442895022109412,-1.1385471398241251,1.7224464577692784,-0.6193350453570009,1.455322548420162,1.8256140146785202,-1.5040875163050031,0.39227891473252646,-1.5283276503024585,0.80295401011645673,0.45198172839955381,-1.1374365886950628,0.65189429649425779,1.1543391607407472,-1.2815062815923486,0.65608462914283083,-0.075302197121502129,0.9599845394924722,1.8276390450857933,-0.19137868434864522,0.56552301562223906,1.579661450260176,0.08969779684732869,-0.37039934965739429,-2.2086249653225511,0.2291287327843651,-0.7014026811262527,-0.73533497301407014,0.96480729568735202,-0.43514269729602612,-0.76966152580092739,-1.7282828265436059,0.93200432913816778,0.86122710726159668,-1.1563436401062834,1.8759554977877122,0.40219180034319157,0.58850010448934365,1.027109280304797,0.22046092792632194,-2.0481024659581513,-0.55165541182495947,-0.42776493377979108,-1.5579435432858038,-0.97763054492691759,-0.47859234545731572,1.1519735712049413,-2.2218948337802433,-2.6595695925844378,0.43048179581388613,0.62216030535412914,2.2484666609085222,-0.70745642033347866,-1.4796370633187739,0.78623387229122399,0.77868363747892522,0.49439624141914856,-0.51026308271788068,0.16668716011382773,-0.75359192510071027,0.97219317365221436,-0.61670696512292045,-0.10858344000012435,1.1356195364310844,1.5909969457375772,2.0252962869329156,-0.5797006945146026,1.2622905631479882,-1.5940364802431621,0.9969136566871416,-0.37741781897907312,0.92155193572084326,0.84440400017624118,-0.86318479133192261,0.53874453913783926,1.364171579877864,1.6047430996459031,0.41852098427951329,-1.5102986989184928,1.1861652001641536,1.823678463317072,0.26475852668827121,0.21338235754003532,-0.49001148675793488,-0.92256944792816797,0.23088983360004534,1.6805331508669841,-1.4633215878135031,-1.8815868088705714,-0.14631097559889708,-1.470055392359692,-1.4701929769342017,1.1987164180128658,-1.1155637155059701,0.19058362489724959,-1.0663463140252154,1.2633457956638134,-0.60637091124353648,1.0697727975530402,0.20295455430329976,0.93007197247491857,1.8477213944625785,0.79512953955330012,-1.3213522938852655,-1.8070101959576088,-0.70361207159040107,0.11286896118345506,0.061929289798491313,1.388891976533994,0.74207133417799942,0.39067047122569504,-1.2976626151778283,-0.15386621946352655,1.6556899984355904,-1.0344012451454923,1.4337517009571357,-1.2962032808900952,-3.0307490713842502,1.9404908477972442,0.10892031788963452,1.5971627826208168,-0.59096185678123903,1.7869403888485573,-0.67343691662873606,-3.2653873623920004,-1.5246617376675049,0.83083794397058752,-0.024628163438377423,-0.045221078950257586,0.53239544219710377,1.1917642295104405,0.0001491796390988252,-0.34987918908041593,-2.6693997478797233,0.35408753958715372,1.7472477907060844,1.1165823324422355,-0.42626971079702974,-0.75411409867434398,1.0915196190219816,0.74670270843639874,0.5257666539612097,-1.1135275768459383,1.4111779868961905,-0.47304117431397746,0.61753881937512178,0.39986080737358404,-1.7506982552590291,-1.3278887845525273,-1.2391115480768151,0.21093479163318696,-0.59169655144389988,0.23057191646474279,1.2673571886475785,-1.3483717939720856,1.0206492879067255,0.29389820652717874,-0.76156260861350789,-0.75062261259561469,1.302389592863038,0.29720792833738752,-1.2168683282196679,0.73667733783377609,1.5203834756987002,-1.418462181990475,0.50400146554913627,-0.55325736471770726,-0.064907835634322689,0.60947460284632859,-0.26406511850966802,0.98692089601661215,0.70171320121743264,0.50699504004018037,0.17045376858558528,-1.360178245225774,-0.95799302452198321,1.7032369207224962,0.1731938183397588,-0.89982497254710847,0.62504281429905895,-0.26478327816484176,-0.087622869693059713,0.44383214217817396,-0.67014683074131842,-1.4837293373615656,-1.736101649420537,-1.5190550012230757,-1.525949756550246,0.48256986453510808,-1.4238249836928656,1.4937727978244024,-0.84826090184863012,2.5945687807515956,-0.10468078278161873,-1.0575857928134702,0.41862943087397048,-0.43551281386360519,0.7072128811291204,-1.3318646026797327,-0.83649015502452628,0.41759298891064128,-0.56670681129001199,-0.055342756533456321,0.83045127009520292,-0.17497670787877204,-0.13868220566139949,0.91563876835091573,0.16650499923795439,1.6480938001353316,0.041131861440715935,-0.093590744674361348,0.45433931637687686,-0.055522889273573198,-1.5213844526901417,3.0336716690310075,-0.52941047419383958,1.0869226248910135,-0.33900764057662602,0.22476885081145137,0.97893698978833998,0.22747067963459783,0.28877825217126535,-1.0113791150344271,0.80027783368046435,-0.14384273111248866,-0.55389386330537604,0.33583903425988704,-0.053560472355476285,1.1600575868230278,-0.7729527836048844,-0.44227235430384082,0.81178088147935923,0.79167428934821704,0.49945178450604716,-0.2373715455180925,-0.08096545552364684,0.6117078019229315,0.2523117826954282,-0.020945650827848373,-1.6883118827641346,-2.1401460035034403,0.72270603065798367,-1.2136121478783244,0.07966301941828699,0.074999331621940349,1.26827317459944,-2.8215523852449516,-0.48281714426684075,1.1014629247924326,0.24134277555007935,0.33548901249404162,-0.36301655167866509,-1.1006199969818284,-0.77236719000455212,0.3937985104216889,0.82193283216710189,0.94329937219483373,-1.5515752685334523,-0.094060004518391097,-0.14079868875582502,0.55163781228908049,-0.92982636199966084,-0.133667845784324,0.84809936837029709,0.20257050967804327,-0.1167901467036683,-0.78332847246397175,0.1214249998362596,-0.35390151984223306,0.75167178612117602,-1.4432743758193503,-0.55050861235222581,0.18050570760092835,-0.5415854310503555,1.8102856513739616,0.9633392947373135,-0.26316309493817275,-0.092422000073580673,0.10280153046485271,-1.3159092333526354,-0.17430691731133538,0.85494583330896912,-0.64956150565865933,0.48666588899880731,0.22377224726443651,2.0947907648240212,-0.81147940708996802,-0.15180903211987906,-2.0344207880216687,0.41978329388148911,-1.4054233044409346,0.56504071422195146,-0.70177786890840788,-0.52737069731268915,2.3377987950171235,-2.032834218548369,-0.38674902855079513,-0.90876167772691119,0.2931147965443478,2.5728587170482315,1.6196496303760575,-1.382087365315668,-1.8406300124237567,1.2265005023873865,1.1150858769302938,0.20738377776072647,1.5218714923984105,0.62458992026525162,-1.147201284113166,0.010751969993105993,-0.87042408383577774,0.43878076751317102,0.51818530785342709,0.94581114088439044,-0.24483063224706345,-0.57976157558743069,-0.17438827694126377,1.7562766659060454,-0.48850389811372452,-0.013333894806431712,1.3370268593642045,-0.36213058534378351,-0.22287717645988006,0.53482292916568797,-0.17939389338115108,0.27610178181280814,-0.73918604347892025,1.2948201143113065,-1.4968408220616041,1.5525774946941051,-0.43160172163562271,0.7222449287664926,-1.3286431129023282,0.18563645038013771,-0.78184011264109488,0.57697367277530265,0.24805751514815705,1.3897713381573571,-1.7527482658334212,0.63316186099091276,-0.48743897866973279,-1.4580913963495388,1.2852428219264831,-1.7444055564573144,1.0043409156084928,-0.49061168525660404,1.3919494092717366,2.5103803634600723,-0.64590958565550605,-0.70544998730321318,1.2456694200682383,0.43889613698307128,0.36922095462725368,2.6325646876544875,0.34499154108557201,1.3576613514391789,-1.6265509159214944,1.8848727379537762,-0.6791128257911091,-0.72406733701764425,1.0943818945732668,0.82875114403640615,-0.28109543722777031,0.53097363956191312,1.428180729433181,2.0747488967090275,-0.38560196707858291,1.1253427411360744,0.84955515597904185,0.83412117029838273,-0.80274660195312952,-0.19784268800680643,-0.047251507680113922,-1.1051599976905722,-1.180787461148145,-0.85002157150172597,-0.40344922026874808,-0.44750458202110788,0.093008801499165891,0.90844405706226439,-0.021749707929468842,0.13904008041784999,0.42577310071113128,0.24860128476082063,-0.39829918621503496,-1.2738638650819647,-1.2124887559937685,-1.9842598779009459,0.011147242267769775,-0.46457432567716417,0.18416644955388514,-0.060435885751355056,-0.67488516134134202,-1.1346618761159806,1.4350726481711558,-2.0300219159009925,0.22490117187254313,0.23510972332007646,1.5293514851064218,-0.89960587360331168,0.64381745391974554,-0.70965744268752484,0.51624069998918243,-1.4495933005511259,1.2673961489509491,-1.8361049415808905,0.31388576577737215,1.1431918868634663,0.31511484241457982,1.7076140510995295,-0.047109821428292238,-0.29668501853185431,-2.7740895460703485,-0.52949030399279673,0.94301185974654889,1.4101729595582659,1.3057635001113685,-1.2955167492831439,0.63321413183976771,0.23008346954142586,-1.0508102752559318,-0.19489220305683927,0.11366067624137868,-0.16215344979635729,1.2310206807597492,1.0122016128260487,0.38771980734055855,-0.18191592121764266,-0.58317226652983056,1.2961137980841788,1.2082594211334277,1.6585668702708969,-1.1528839346980813,0.17233024142413603,-1.4023873309561887,-0.4674331232300058,0.62114372058308853,-0.20956069503178548,0.3124608508241512,0.31293537403294969,-0.26353728919399177,1.2354651679791335,-0.12028761697987279,0.42781384534721173,-0.1147909778595062,-1.7454741736104558,0.34536001995884619,-0.23408845329415787,-0.9300308035640179,-2.1017919945342958,-1.5583699400038524,0.24978294997858438,-2.5067222684479611,-1.1466811569742386,0.2506685841089214,-0.14340102266705093,1.1819747749441953,0.53539595501389148,0.48904585738928219,1.6929846257992365,1.8687920082703304,-1.5964008145861388,-2.1203358173733573,0.64952904283580093,0.23870977026295359,-0.35489551002129671,-0.1453008855312129,-0.60056273701525864,-0.92176360358962617,-0.56053776046000536,1.8993542706937319,0.5461180591762741,1.0971529606040755,1.2348209835526915,-0.93336155724501957,0.52947936077442659,0.05299741291972454,-0.060940781337228411,0.093186198262327602,-1.9102497947294101
0.93861933946784559,0.78551879730272456,-2.6478857335289385,-1.37972835115694,-0.53821957531440567,1.4315554726761601,-0.76317585221126893,-0.22429272127601807,-2.311271123679838,0.85278069809761436,0.63635252551210375,0.51055190433846054,0.47529032498109614,-0.45053495488979756,-0.56431236966589271,-0.47652531839990481,0.12009044939784226,0.85680984862660214,1.1089806209391617,-0.95162369452330076,-0.44599494885172974,-0.28414764492189937,-1.943766337291724,0.82154682537645451,0.62416239035840237,-1.0819029959716153,-0.46520495413441848,2.845309529352706,0.4695014419916223,0.87525877076638292,0.62680187403735899,-0.97186566763431947,0.35225215072720206,0.40303955767722266,2.0748306019432423,0.30699713842512272,-2.76480470106342,0.78858463198511297,-0.6900816721110411,-0.28284388963431173,0.15969518735050495,0.77861647432075454,0.21504108688767118,-0.097921948050123567,1.2075783425261559,-0.74966348140925909,1.0819301106970425,0.21198185966705702,-2.6418196120196278,1.5321140568699674,-0.051756525667695015,-0.70502490893014502,0.84548999993554796,-0.13540096926524567,-0.5250597925130962,1.5969698359276903,0.33578131661191646,0.89776240390877149,0.26716071422588034,0.30679241907357574,-0.28997024112662639,-0.98019081539463992,-1.6458025751459273,-0.12546894941378017,-0.10468859236357399,0.022029015818134066,0.53802981323214061,-1.8295544561468247,0.12428472392561124,-0.76829253151588051,-2.3383192414335112,-1.0419021092451521,-1.5641212607715935,0.29207806505858785,0.46189957588499536,-1.129410368206248,0.61282545588133908,0.71382597145311177,-0.40448436211157474,1.6164072733018822,1.2398162925525316,-0.2498865933235061,1.0380615456822215,-0.34358507961467777,0.91750449631762454,-0.83412037352226787,1.4551123920359808,0.77642512251725782,0.018206813561209009,-1.8532866005532531,0.25238273472209455,0.44591546883469341,-1.745024713860605,-1.4684543282439146,1.2872045015531981,-0.16417581693443517,0.69870943023867949,0.48020629338377591,0.038034657531913353,-0.018703644130606632,-0.37788359479064276,-0.80958874522874158,1.8779842471460082,0.21128291342618125,2.3827339225567177,-1.1464063245368636,-1.1775120436304716,0.45718987765721419,0.32916274467749984,0.56078253439114456,-0.70291040505465974,1.1742892010138211,1.3144192001017749,0.23633325813675352,-0.22762131297536603,-0.84411819891769935,1.6303583445748755,0.94689698769949615,2.8880413518313297,0.80366306096267703,1.0482495028943524,-0.56893244342749472,2.1751510091168842,0.98367186720417388,0.17569195375805707,1.2105915491301185,-1.2080922515196622,1.9399626044104981,0.63285880919860071,1.8563389145292963,-0.13509651451794982,0.11292000894788151,0.31536776965764163,0.28485322288253118,1.9406317025500632,0.382733650012194,0.72494698150516246,-0.42389216111645822,0.35558696499335024,0.56631194264426055,-1.4113723886447984,-0.21410661685093693,1.2870712519612009,0.2802508803262343,-0.17796632078173774,1.2204506452158059,1.0210759126046838,0.13044147112705734,0.41641650115215728,-0.13442840735872127,-0.97069620524499634,-0.86092366999486514,0.3813357825686492,0.2712775644329905,1.0877883406106363,-0.50204753221678511,0.61847816461290561,-0.649688431547218,-0.92749306641538154,0.1980030807350483,0.068019407098146856,2.0797457833564255,-0.85670728845164335,-0.23307996376364223,-0.29106602434233197,0.071329768233247923,0.032377930430993469,-0.82321242214061208,1.7202825867904952,0.54181073021838466,-0.40947077972801299,1.6856400097134241,0.67972198076658341,1.9041342196320201,0.22135673838907943,0.10741420734866113,-0.17013614859459178,0.79772452835275864,-0.86991762721963251,1.8987375644001945,1.6984619367181215,0.19478217764361988,0.94108367744654875,-0.29887401863865753,0.31425973961732512,0.63012183510008746,0.23132228270509489,0.289421763059587,1.7169198532920462,1.5615549905335941,0.3378893232218188,0.044392167561652172,0.89939167162163725,1.3642361400049032,1.055509419252495,-1.5296236116376503,1.0253704117067308,-0.49176323871941791,-1.3488431923144455,-1.6086343096379052,2.0751912931762582,1.1472799582591264,-0.35538441486431965,0.044178227562743595,-0.75892644161873224,-0.65535499320153745,-0.38696905880005572,1.555541128111624,1.7695255318001117,-0.71162902560193708,1.4336038500123418,1.8094328255700813,1.2589554033412242,1.372596746079304,0.77986783448024921,-0.24002887886596347,-0.45004297041997604,0.10505601964255819,-0.059463071086037884,1.168846805548833,1.6057927807648023,0.067901179946384976,-1.2859788889606669,0.99870765647529947,1.5472185984839575,0.0051496136499161174,1.3045672300515496,-0.59674117580718422,1.1583051985655268,-0.034738352853174947,-0.66191929490888168,-1.2719559366571502,0.13070401777087567,-1.0516607625087298,1.3350397448859088,0.32419200681006405,3.5279612665766691,0.85544342331405099,0.41341731375308616,-0.36942033542723784,-0.83720399195526762,-0.6533731930061859,-2.19618307794362,0.51458471344166645,0.94306438771761392,2.0027341069790023,1.1562272856252453,0.40161071320571395,1.9241348809569585,-0.50522856348212464,1.4546805748696869,-0.36256409325741668,-0.50922531913457203,1.8624127107055855,1.6975161337450821,0.80495200351299145,-0.31394161505471041,-1.9832266138761254,-0.45637817558655047,-0.38460358044900572,-0.37006519127354742,-0.10797241610329805,-1.0045087290107904,0.1120505196881999,0.15418237280566757,-0.19618512593362314,0.41781950815952712,1.0379459452523829,0.78223102997580751,0.63645400474092306,-0.50799031036041398,1.541390954574255,-2.4863450328577472,-0.65010663763053367,-0.061735880387667121,-0.4133916201756046,0.60084553815741293,1.5408429607250944,-0.51562889311275306,0.039646677359344608,-0.55547594226529839,-0.16037461422764177,1.0622817331644843,0.65521775431113505,-0.21743261259070945,-0.053388355951107906,1.6766958684892108,2.8037534149991705,0.11604867259447005,2.7356483168351113,-0.63323215240788588,0.64159768711476362,0.62544972948656152,-0.42073500055550933,0.51619230002909944,-0.66689444536613307,0.39283023675412093,-0.14928435416222227,0.29977360843971856,-0.87946532127046118,-0.68544950853448761,-1.5813587310691264,-1.2737835331105816,-2.540830631617272,-0.0012231687070984449,-1.0068528000604613,0.80087641307854973,0.80793923676257318,0.044607798333004378,0.66681845487752456,1.2660706310236109,-0.84746483750329671,1.8728656684143978,-1.0297452931868514,-1.3522735228139839,0.39372218969615103,0.52906641757417383,0.4641724368464078,0.70318496448967782,-1.6876356925191611,0.0073381925968327667,-0.36136934471936255,0.11309787997259772,0.1146960219858579,-0.82294016277245119,-0.14959188761151912,1.1697080848161678,1.0430984155676211,-0.071153566768935916,0.64150750654296851,0.92877588442731651,-1.7006047495510219,0.18350614229657633,1.6420629601807846,-0.46726798979201084,-0.68049554614151164,-0.35816586133708445,0.41246543550439008,-1.1408271532770859,0.4935832317926675,0.59036650699058446,0.60438339014916764,-0.9588421140730794,-1.0969358688154964,-1.1270058648298189,-0.22857117900496041,1.4887750901195249,-0.9083000167472165,0.17184053184064788,-0.41884709245505697,1.0288426452657087,0.42555997086403324,1.269083705177066,-0.86336561405027756,0.2534098056151976,-1.0460750833884973,0.58535861365657482,1.5902826239225365,-0.37110183829566612,1.2650527680486912,0.58559554701916872,0.88871824263081445,-1.0851747791890964,-0.45329747632060952,1.3177585077527949,1.103536498361317,-0.056024306169832769,1.1946564468117749,-0.30269133799463255,0.1982738768156482,1.4647808579525761,1.5014187972553976,0.84934676661704167,-0.18277264140626029,0.37885075571842824,0.90766009787797231,0.78246931048759338,1.2183958301226288,0.86984244733183347,-0.80060224362967158,-0.42709216035754805,-0.56556378004925145,0.55971662246507947,-0.4885461161664732,-0.022304597147149757,0.69913365487051926,-0.67448804167895149,0.49632972323958907,-0.73614775780068331,0.18845728873067985,0.32386226288738185,1.3223146964038994,1.4810647821605591,-0.95029034581609206,-1.1577486884957611,0.214588991137003,2.0513533549223664,1.8959259106408748,1.2070554886984901,-0.14746056891595144,0.081978202892018251,-0.18981859938345444,0.60356790599634136,-0.34496430257191013,-0.5487385089771778,-0.14870924707179922,0.11030017420459506,0.14441742117805595,1.1741911207893703,2.2233304978078312,-0.59017934150840445,1.192191517236951,1.6648331237999294,-0.49535176726938485,1.4646172434667077,-0.069299683497114128,1.2747389132393605,0.14349531322281758,-1.6238197215529466,0.78587823622407926,0.54320575443072083,-0.71600324042840569,0.17053972828888941,1.0740276089590854,0.12752266490409581,0.95174756410861872,1.9530364493777652,-0.73539892403204421,1.3533831121339464,-0.54823019574893173,0.22431498823969817,0.66416269911547443,1.4944010237594822,2.8250259827224684,0.44978375448959829,0.43290092687366882,-1.0372067790744153,0.54026750696368142,-1.1087915314442285,-0.3457903212107683,-2.1052917954280632,-0.35076504372450107,0.5375875257477547,-2.0067137060313414,0.88125304151533357,0.0037432355317471864,-0.38528298776379066,-1.0952244383313348,-0.18573723682986673,0.82399241924356381,0.8672982616292515,0.0747148341097012,-0.98023042427031737,0.79036114415363878,-0.1080732853407347,-0.11721712655921407,-0.15840990006455902,0.09620247083024791,0.28733953912445742,-0.19426586486977721,-0.38854586376948957,-1.1437229184436735,-0.50290304008366449,-1.1160399593136683,1.4405714850112055,-0.99228485309016023,-1.6928953485439273,0.66283234952237047,-0.58743869969793949,-1.1222855052673724,1.5459428980800305,-0.4079489247435103,0.0039896691894339411,-1.0505195948183057,0.53522181371808697,-1.5748858011235916,-1.2783826638834213,-0.25915797171431837,-0.31988193737092008,0.21533514579962879,1.052070274858107,-2.7662478737980196,-0.10967958341515627,1.758091910267783,0.27789594288800962,-0.13024600916420123,-0.48493556569079077,-0.45674450111989878,0.93510761786487051,0.59681739313376159,0.59161261767124695,1.2320597289825033,-1.0155855549022554,-0.26172242902374715,2.1975546633660632,0.62186191347678976,0.46802625174010098,0.50852314104992735,1.0443568598253337,-0.18200318479108074
0.65972962514482347,0.324323373599057,-0.72449978146345595,1.2516966170377686,1.9094386198753619,0.83008553466691082,0.83682148453176697,1.7351692219400139,1.8212285595191333,2.1962573009030746,-2.6462900904303761,0.98806528599248167,0.1078406793560448,1.4856009691674275,-0.14369724858919705,-0.33165020294746933,-0.80757972069753559,0.87394111391743701,-0.48869563183861847,1.3999868912686912,-0.33617689918585247,-0.81334521189614528,1.0791835184635543,-0.66097586178980594,0.3784116141021529,1.4155626377972452,-1.0383837771719568,1.3479139328965191,-0.71483984438791015,0.53631631332115437,-0.63339091775598966,-0.73033839503388309,-0.5051585781126503,-1.0446434346211597,0.011590524671097151,-0.29430052381983335,0.54409458072288375,-1.1020641972025722,0.76819737585552816,-0.30816467008340404,-0.29236328934254813,0.64267312919690789,1.7771904633713054,0.024693097258546497,0.99758564774837877,0.61678081745691349,-0.52212170154960102,0.71390117010014209,0.1600006045786892,-0.58494108665220157,0.43590676653915955,0.8851129214937844,0.15682239044506829,-0.06681422700508749,0.20060643010526849,-0.7797486415256013,-0.28248478574795327,-1.1769936434874539,-0.46092340270481191,-1.2234856607992877,0.38530701759941971,0.47678201479651205,2.0861962234362834,0.3536016193470341,0.18638157453069584,-0.30393155073955103,-0.4065081035032882,-0.68265709495548965,0.24696669792816994,-1.630742551091457,-0.29041125309235694,-1.6982508033454979,1.0155775733106054,0.42546434025209279,0.15327838132548519,2.3876245018501949,0.24555642905569955,0.95931922325666485,1.9932212182668374,-1.8241902649278217,-1.8262151847398167,-1.7548436566807577,0.36367210002235717,-0.21655889723274308,0.027992890750838276,0.80298681693541452,0.65672808064785193,1.9304865714534241,-0.17430914151892829,-1.3021680830740223,-0.47195829458026228,-0.41552410596954109,-0.23632307306972741,-0.88588030683349661,0.33391389400170035,0.22212254342891932,0.56677827999255614,-0.33811781551577408,0.5842676815547202,0.92390573806014697,-1.0059567085325951,0.095551380078425452,-1.1176208024354606,0.19668811617917006,-1.2220608742115362,-1.518913614860363,-1.983824517420794,-0.58607816457049022,-1.6811425813242398,-1.0879430192117161,0.67334551079294702,-0.67291316294112147,-0.5040201867852111,1.9351283104361019,-1.7810835123381883,-1.3803812499616634,1.0447980371732477,-0.22610201019856149,-0.14914451775688481,1.6025926630670766,-2.1746924716628619,-0.049434332062635179,0.34473575015163205,1.3329168346025382,0.27781592374107389,-3.3520222309953795,-1.2531405992387328,-0.78580962156176182,-1.6128545387696591,0.77032522609857146,0.15280631746246129,-0.22436190528860869,-0.12080787568854,0.3021907453399682,2.4982363351515429,0.83548451031491888,-0.19771380438441,0.62801563879000544,-1.225842555501399,-0.67619639975549928,0.87326588312808739,0.44801307219327102,1.2122258793169096,0.27706111933010835,0.36989117325052151,0.34336060599854085,0.88824628682780504,-0.93419082917712981,0.74741481119590436,0.81772537251888544,0.60142364354764044,0.77680166842357234,-0.20305588812831316,1.0389189656968163,0.0014426422958679749,-2.1746569279424199,0.028558651521361729,-1.2013513229428239,2.2125794882556873,-0.62045950344821366,0.99302489811298289,0.23785749777380186,0.33584214643010341,0.58722956622560851,0.89811772661379463,-1.8215743960866333,0.2242967464327322,-0.15156730679862018,0.46118065978748385,0.34224625355070615,0.035029490282442899,-1.506785158471158,1.0992646884664368,0.68494781180310338,-1.3564068147735178,0.13527550536508254,-1.2179528919221445,-1.1185844222657035,1.155410738895146,-0.979111596139837,1.3979151332460058,-1.6092219815326658,-0.75845850693955519,-1.3147470481323242,-0.17219423318983906,-1.3067502299919895,0.77626781375953535,-2.887072823318459,0.45032290151137805,-0.66235972341085592,-0.94982634236949126,-0.016881787648019751,-1.0226812969077248,0.05076521298704352,0.42572614820996035,1.1504357753873402,-2.1085919802612247,1.470509792884229,-1.2515615617385161,-0.45295054405007329,-0.0064007439094733009,-0.32978283192611924,1.5730638944723669,-0.9104875039403576,-0.77519723151120745,-1.0291101715363047,1.1338873652052075,1.8425330328892813,-1.1545532460529764,0.13258022587756491,0.63105227043478707,-0.10486731199199839,0.60238661810782124,0.30052614356496743,0.52245360589209,0.12484256140042516,-0.9023026678126933,1.6490017859499218,0.55210331257142353,-0.013375441726613339,0.24510506663586884,-1.1345372875021447,-0.27838827810416678,1.152539457697846,0.65695816357148151,2.2610201903310982,-0.85600732138952085,-0.17113911188717507,0.97832531487400098,-0.73416805705032739,-0.22340607824112918,0.60626602191650303,0.59735199496580882,-1.1103097577756273,-1.0213681976124489,0.1516027948462349,0.94265367459533023,-2.7900862696379742,-0.79717609693499647,0.95703258176375905,-0.9101927490953291,-1.0688469083730709,-1.0813582113866338,-0.41638554650552007,-0.010617925216780306,-0.71252884877647882,-1.5574302637071282,-0.1304537796691955,-1.0690678514117493,-1.3191943088243283,-0.20430033301783518,0.25884871187400771,0.22184672781999487,-0.89635298676318087,-1.4527545450565049,0.44143765744705638,-1.0243806059233065,-1.2422647959102886,-0.31919025061274015,-0.50334248437165485,1.2475556380213269,1.1354751400175016,-0.93026670742022177,-0.26539468015227857,-0.38852413804230379,-0.26387812235367542,-0.052791574513422021,-2.0013003475622622,1.9516169866269952,-0.71172844481984265,0.47921847755913199,-0.41614299362127316,1.2479384820744688,0.82836068209422498,0.4283541841252671,-0.079630640959627255,-0.73830799936379476,0.30394742932269375,0.90246063472082372,0.10377629214526561,-0.5906474544717395,-0.033765355484495073,0.30179304386551381,-1.6708797781740361,-1.2583790550834486,-0.95944583235526792,0.87407296144716229,0.14489080454856657,-0.43657220980882794,0.48956981478369349,0.40995177658845278,-0.90667255673103264,2.8208628087107352,-0.7385120613304359,-0.57277034120060943,-0.47940929959429135,1.4785367483840135,0.52524373015930936,0.36776178961713835,0.84947829419435184,-0.51463791877258014,0.85922449353388897,-0.89580475845414398,-0.95264841940124745,0.12159236132361906,-0.36495465225729734,1.5948234273537176,0.23423649203102676,-0.89277119610660716,-0.085709921571407402,-0.048260147830441462,-0.91502158216158236,0.52979111118853983,-0.58145636683045887,-0.60745482556796881,-2.0354135859673539,1.4770606026669324,0.69860545221890269,0.69431200395752857,-1.1621443049541309,0.62142243163440347,1.6798276358719899,1.0179143258236998,-0.39995390667784525,-0.05911305468906336,0.31297375635207514,0.6218884749588719,1.6775749972746725,0.87531665365455669,-1.2145514195985063,-0.44198077143623682,1.3998353873037652,0.62427119959019306,0.61308009616971826,0.37275997545035028,1.0446643243332949,-0.16786180629157343,1.1796079400163637,-2.1755947125661752,1.2378790846909211,1.2448333677750174,-0.46302631466721883,0.98470954009890721,-0.073205635485558307,-0.15709101611508772,-0.048850013145690263,0.42929192069062283,1.4830117795821118,-0.44763651566451707,-1.5621838832142483,-0.59942653781967747,0.56877345762662446,-0.54037118970212872,1.72709674850321,0.88000525622178805,1.1603819796712662,-1.1258512398764859,-0.97310872168689733,-0.43335763455740006,1.2254508257628878,-0.13236294864840314,0.51325631355873902,0.89668849266414974,-0.76335564444127579,-1.1878363326931203,-1.0914494392841652,0.59668546747840634,-0.76940554924787707,-1.849248679341515,-0.38564133438041154,0.3150001871712208,2.1270925999854406,-0.77418667801239682,-2.0946655248987613,0.25759810018607665,-0.76259517304431224,0.12088932496948475,-0.12341285253764656,0.58793451301225286,-0.66659284122608953,0.62750233623397689,-0.040600424913708237,0.26068541213071134,-0.61161943394002216,0.58475208134487977,0.39024574056147482,0.85798590589297863,0.0074462110589959872,-1.0347723625696363,2.3178902423049697,-0.00035315992540169882,-1.4550333980517454,0.50128431536819018,0.81162404895195561,0.65224207353506414,-0.097887586694408293,-0.52540121791041072,-1.766769568910096,-0.3768894690763322,-0.6143200439932569,-1.066836874590527,0.046898124264031067,-0.3592703446850315,-0.55705824783054969,1.2139028041662576,0.39239834352368624,-0.12013660325351401,0.95198753587844498,1.0741705384146552,-0.58814547704414144,-0.31527631416609042,-0.90107111659506278,1.5730824337272227,-0.55279690501341572,-1.1831310570773192,0.96032354832191447,1.4061337279065538,0.2247787937329272,0.11549110257517457,0.76231444911572499,-2.7420983311142959,0.023052580382597321,-0.12826693463883343,0.96480570769446039,0.10194462025116023,-1.7213042954331677,1.3698256929267649,1.1322077921365503,-1.9837844808192882,-1.5210473239293811,-2.1126293213997802,-0.099142691945655337,1.1632603848833873,-1.1980827832270082,0.088261558836210438,0.41359010304726085,1.908919975589374,-0.13228910566317736,0.73736789333235309,1.5893428619867382,0.11070433331434219,0.32498375060683593,0.42160268895385089,-0.84857344975373072,0.91233914735436594,-0.79776339948160158,-1.312120746099231,-0.8312352611601953,-0.6934436288917698,-0.18472169868164898,0.75470840992247601,0.11716709153204866,1.2727872553927178,-1.0137392974805279,-2.1283684961283398,-0.40819213497682727,-0.68747900390990069,2.2111384554915103,1.8016586430062944,0.44475907083841859,-0.81828064073381113,0.35870908094642634,0.46594897019452419,1.2201586744498103,1.5365296458789204,-0.66237196084443173,0.12290268434122134,1.0980056753726128,-1.1936601656890977,-0.04054563800459908,1.9329579731188717,-0.38946215912136739,0.66671043395451013,-0.84952377418597946,-2.4477351592512568,1.7593086887440217,1.1995389250715549,1.0930599801682501,0.89677904594710389,0.86951785180806773,-0.99117601769486419,-1.0218217266794818,-0.97719647383799768,-1.1985941687265098,-1.1832852801285028,0.55554575085170099,0.21708731111088209,0.76431022999287457,0.07015073480379494,0.52058240112865617,-0.85999966759639968,0.24978225000980914,0.095195198317737859,1.1367882849397075,0.82624558462698883,1.0424032329645658,-1.2067563313667515,-0.30352702135450954,2.1697110176635359,-1.5655989050651333
-2.046859837571426,-1.4868689351643603,0.47347038464760161,0.15700005252040092,-1.7525306026508423,-1.4195674060133443,-1.4181301612580577,0.55794666199988263,-0.44073815223149387,0.70624991458422082,1.2511729645919052,-0.77980867460332026,-0.22416866538257754,2.1022206982090736,0.84096585777240551,0.8900587751598712,0.10069360692700664,0.93878295916265109,0.045298857754213918,-1.4827972827173086,-0.48569756363825389,-2.2607298202248938,-0.093280679662633967,0.047277612604938013,-0.20090155066779286,0.088367327992224604,-1.5204355297638676,1.8668894764988819,-1.7579649222798432,-0.52151905542710386,0.086065867877054752,-0.18054968998889193,-1.5377292905753535,-0.31253050793837228,0.18226839723362592,1.5075115266759676,-0.28157993177697177,-1.2904761354249379,-0.34443997367923662,-0.42083065182549478,-0.19867020005153349,0.78024061316431303,-1.0314243865543062,-2.0935991037996553,0.21235523929000436,-0.63265628863853851,-1.4110511596469826,1.0313945197811176,0.4392866353797707,0.052279789948601198,1.1162552714487364,0.63307565864014503,-0.71218376042875753,-1.0385865347958285,0.52610821591099044,-0.25745337948508384,0.087225242654636076,0.10822992316689316,0.098774854765976916,0.71352666139779897,0.47481858846819641,-0.55057357966635967,-0.72347919590010212,1.8613849712462931,0.54616611029915063,0.4256182810748726,1.9232387146326371,0.12198280973841888,0.13276423908750992,-0.67654407479382483,-0.83953904682147396,0.80279009374585097,-0.74391728900246412,-0.18797452686392735,-0.86672052369565566,-0.11928438532098258,-0.033765395192622005,-1.1387809190003915,-0.91212691733901674,0.44385258946366368,0.85184809051325106,1.0565574842397956,1.108229443768638,-2.5584048231000498,-0.76943816379263696,-1.2648798631078753,-1.5856084747280783,0.75624679727879196,0.38214259793763461,0.90708185985407996,-0.97780290388989477,-0.4691163288512572,-1.4267624594662887,2.9871780631494884,1.372154720171358,1.2746981144484781,-0.62691172516647298,-0.043419858338049074,0.48180235664179022,-0.1889189343132196,-0.44132242796013305,1.0634327582405747,-0.074525950183643427,0.19663625536813176,-0.33415161161065182,-0.38518091657005843,0.69667672462094621,0.67504193177420346,-1.5895841555271084,0.57069049058059418,-1.3735336789660053,-1.394951712915838,0.15845253203735873,-0.29862338945387867,0.80370056571467896,-0.90133811673925379,-0.16257853329366193,-0.28926110411249772,-0.89430987092069525,0.059026370082662913,-0.78979215460820718,0.13237337959788614,0.71566674799675212,0.66050886201750336,-0.077935496477994956,1.3774228825817325,0.45641583995789109,0.34122358176472323,-0.16044449931747265,-0.31750566806506597,1.5712164461906175,-0.76131899370162504,0.42338892485217433,-0.14778216214632067,0.46865665034218734,-1.1192021008025297,1.7102585440504416,-1.2179721451225247,-0.14814758044192164,-1.0822447756162119,0.64630808004599338,-0.4669575549338752,-0.78268794232877392,0.25699749917115006,0.7226279360607526,-0.11206570412580939,2.136677483009326,0.18923102008579326,0.027341336500384835,0.66457908479641492,1.57838606672061,0.25281184366621173,-0.5402025187735382,1.4673791920815817,0.27626781203339806,0.045589829006786223,0.21065038729512348,2.1984487846113678,0.27541569004246169,-0.5822158562531059,1.3891250993310835,-0.36724505338318642,-1.3923840297889232,1.8780808066098029,-1.1549213134393732,1.1037405971857326,-0.15769588663700451,-1.6660767803943706,0.81299749845533575,1.02095372227554,1.4406987953979309,-0.81396930114266619,-0.58339724505195434,-0.77804139901530223,-0.40426938000826612,1.2477516054189468,0.95572485347262226,0.26836634605744014,1.8575834274016652,0.14984745516591008,-1.318894884141171,-1.4476265037152318,0.68027514829911218,-0.53272382720465172,-0.83324808420546137,-0.97522518775635081,2.5135712094264941,-0.95525463292728785,2.1928015823236335,2.2271541545525015,-0.93172316085514695,-0.33681167702852782,-0.25021242220522016,0.59449192708999643,0.58870790653319727,-0.61880392211876811,-0.19926880397713836,1.2183017805898617,0.60094425349287939,0.098531669610401496,-0.09133988195750059,-0.71962554885528573,-0.054571085536181882,0.58084797147733824,1.4936899038912681,0.29679025710770141,-1.0788001593475924,0.24632192883377213,-0.68126897399375763,0.35857834567152913,-0.32604330067755333,0.12513021874087174,-0.72321939150395265,0.91186846820733292,-0.85153030131963869,-0.25001978584355311,-0.49012924965987958,-0.52243204437911939,-1.4405846551266897,-0.96613786202261098,1.8992259341165523,1.8574719351869222,-1.4145474806572809,-1.2602762911098428,-1.8513022183571304,0.94212704527841373,-0.19715163435916766,0.8392836122519477,-0.0096825631122999488,0.53743450255983483,0.13825051725271895,0.96113635148866938,-0.40881820523291196,-0.92583171590199376,-0.57444387641077332,0.13524636019670933,-0.59303715178286742,-1.3003102671993423,-0.34520367091595361,-0.54934458584792067,0.85585110604169357,-1.6683764404735726,-0.69248867145542392,0.49684971831633418,0.60316372118811967,0.46725592206379946,-0.0013681379586654757,-0.39600489084691748,-0.50340434926326749,-0.22535090221042589,-0.42330357688814563,0.34311038367569996,-1.2080659332408041,-0.30493490410990437,1.0803488936020302,-0.85228523651872889,3.412906416843557,-0.68549318434073492,0.81561199794778338,0.87942374146446178,1.26050081861779,0.022479497561944974,0.76236829010929597,1.076330465645148,0.39453218176492671,2.581068860756651,1.111099556683498,-1.1247937585026844,-0.37197922587321436,-0.32824224777861749,1.8074857947401126,1.1933019737812451,0.18017191365025861,-0.72718131764460014,0.85008328043104819,-0.41090897120807679,-0.79293822693999017,-1.1311828631806564,-0.045845864006961015,1.2375325016989029,-0.62589854405361278,-0.36517839691233311,-0.42533770812481486,-0.42905628192635453,0.76998548669642219,-2.0652025915014112,1.9838642587375912,0.942787825724129,-0.69832040337760037,0.40203199294778302,-0.57325103974277891,-2.2474566934778935,-0.55489406684860987,-1.2638862827053066,1.1308509968140918,-1.4671259415244955,-0.52354599902206023,-2.6072879651559493,0.35050712290407976,-0.76157505462304154,-0.9200331948880146,-1.2345702799461475,-0.72467960590518576,-0.40069870493198262,0.36643745183265464,-0.46727593175094945,0.8471765144307023,-1.4559715069020187,-0.91055421883927301,-1.9268546147495886,0.3636788322305114,0.42556336394383143,-0.015295339408419215,0.60759203709706455,1.2946468351831864,-1.3072046727623938,1.1583360006185976,-1.9528558642912035,1.1264976004581091,-0.81383846514185865,0.17259463058201216,0.26333734136399628,-0.84922695778864254,0.91108825768837143,-1.542670272840833,-0.47747393100220192,1.2424159287889103,0.8703039348190702,-0.31115409433534585,0.30312306430532271,0.57222454392453659,1.1094999558438916,0.091115218259285299,1.0867615452097634,1.1866214437116052,-0.77814195750945059,1.0793121659753793,0.088742252358544577,-2.2316767135165416,-1.035462004295878,-0.4430201749915505,-0.39464145149297236,-0.21433517715535208,-1.7344725452195739,-0.60119815878895611,-0.74866068049276957,-1.0333404937641191,1.0195736120420302,-1.4198564036489754,-0.62111253774412711,-1.930333379868779,-1.1622624617364541,0.2467186015166766,0.70896959154042016,1.3683301222476227,-0.24218850806003503,-0.83283147202244656,0.79894585517376415,0.0015660944135358977,-0.016778115841615548,0.45779666309422762,-0.62421254805257365,0.34683363391340588,-0.1113539589825116,0.090455751166892168,-0.74287937948084681,-1.2864421220518787,2.5901058444657288,-0.049130021241269736,-2.0761525002302839,-0.59304753470070426,-1.813829173264448,-0.56300176469230057,1.2925261512363213,1.8111843730391513,-1.0924212403967595,-0.67102228165275479,0.33169806743553115,-0.43687555321344723,-1.6401507349109898,0.38464829352845603,-0.60903295239965027,0.066866114401565119,0.11690008258885534,0.98480003363647339,0.75676213931792258,-1.0520180266554457,-1.1362117053569414,-0.28094007976359425,1.8763399080982688,-0.57618684311901247,-1.9710802911349858,0.087348937743670349,0.95200779609934183,0.53742250722479434,0.81556864424820308,-0.81212597776870676,-0.52929361282019272,-0.59418039070108974,0.72269180692978052,0.31566597495094284,0.81282685394774179,-0.53325845847923403,1.202949118864088,-0.93160637485339248,-0.71024989715359832,-0.0062266718063812999,0.64778254467843033,-0.59029496106245383,-0.056560792504662616,2.7015214559617378,-1.2539140169334457,-0.98881082683128518,2.069540021942502,2.1011268163244492,0.98974365399422415,-1.1724728626722589,0.37033950889929373,1.0893854035429404,0.7511604039770724,0.58809378331842443,2.322984426790641,0.092210564852360108,-1.0132900761471739,0.21748882328525376,0.037251340465561722,0.59921336259441382,-0.12126071743703065,-0.40649327629044146,0.9726759856313949,-0.40756117264027586,0.53924216151667181,-0.42327854672096865,0.53636907276429246,0.48356761798105641,-0.55238872787335291,1.0869949751057382,-2.2612377424199672,0.63331284217063177,0.63309154940299661,0.68833477080857963,0.15809855669749229,0.46567429589857567,-0.45424751752948239,0.37492762020228876,-0.98897115197553975,1.5955334974267936,0.29920976206000238,1.0438564646964832,-0.22253533014893265,1.173845337091997,0.0002415735626293245,1.4072515038359621,-0.6659113144899067,-1.7121394050835759,0.63393797891180514,1.2564911017394507,1.3462599897081127,-1.2102991156150451,-0.62800714233685462,-0.72879183128733482,-0.36043942775130267,0.64493018478674591,0.37335082941983538,-0.086114968885692922,-0.85471656876550817,0.10459696209984656,-1.1347684713234412,0.96537986061658676,0.21211190836522842,-0.65067826432620335,0.086024217671167733,-1.5422717751300503,0.80945013595018722,-0.18591941127296607,-0.89527573318647879,0.81888554014622961,-0.63698832304592901,0.027615590118039362,-1.6918070225246986,0.55571602292006861,0.86339940392522307,0.29271463225986522,-2.0192657586657181,1.5910364837748658,1.0248611895035002,-1.46360512202127,-2.6852735799330985,0.24568168029876586,1.3040595795023062,1.1346054521330331,-0.53202402114614722,0.42579658963230244,-0.60949458306631044,0.45469218483922091,1.0790390361675,-0.19482968655136296,-1.3273553228288415,-0.13521526948123644,0.93124353932153059
0.75174740165284781,-1.9708280899068276,0.398318189978697,-0.64515248005376313,-0.052303884117964508,0.26357721858709632,1.3677620364753873,0.35387648499962654,-1.1874628848005706,1.2422606878535627,-0.76217429691744365,0.68458656358973902,-0.067067928743431274,0.16358450951514006,-1.0464424652419189,-0.08571159357041791,0.13581824946663285,0.27246684178551883,0.24187170568610428,0.32009684745900202,-1.4691333646062383,-0.58720665126237725,1.15982672697662,-0.45855398048251861,1.8649678729269261,0.43011632679043765,-2.0611275570477172,0.089184094176810169,-1.0508488961486742,1.7946092203621795,0.2609354406996518,-0.17285206815320384,1.1348119317192724,0.026807010115845988,-0.057458479920294105,-1.3083433807220242,1.4300628282599228,-1.4170880271464246,-1.6479633898509891,0.79848828620731938,0.80716840413073898,0.73992573760051827,-1.8284116563505537,-0.81890489837697555,0.51527511768089518,-0.97812567571130504,-0.43873714717728429,0.84457897098730095,1.6889096361338216,-1.6137154996784377,1.6172766604686994,-0.052917528892820469,-0.30266964366075833,1.9384282689936743,-0.8426306330084119,-0.49451294344153768,1.4749987187707543,0.84960692478395583,-0.63488196281856812,-0.090746800768165492,-2.4846037608483211,-0.11978108852636939,-0.16683826933124229,1.338719169181944,-1.1083410946106806,0.073996400517759409,-0.57797663603343385,-0.58473664067072251,0.98514731570795133,-1.7853545651757048,0.5885938007516317,-0.71653260431646004,0.14251209653415001,-0.092519373647513406,0.4371405182675564,1.3953938474369945,-0.26043431379338833,-0.82328071797286151,0.65507870932257761,0.34415045183519971,-1.0772586179931425,-1.9203521454657555,-3.2709569686555717,-2.2711783312938882,1.0137764863440153,0.28497351241677765,1.6988393992365953,-0.48382918410223519,1.4236458468281707,0.40077723959960448,-2.1846103319173364,0.54474931853212283,-1.4656305921648243,0.60294991668833053,0.31128080316445506,3.0113375248684893,-0.23686209829263094,-1.2241256528596138,1.2478515153323155,1.2333657859847613,-0.71810781969378013,1.4557362257793824,-1.134178140206014,0.74447646461699002,-1.4261647465098477,-0.49903743727876965,0.68786147753373272,1.0124532201915268,0.34591645360018841,1.4077404401343148,2.1354637994006693,0.23003394580705913,0.85146932850929946,-1.0424462004745052,0.022256599373257042,-0.23199297236411004,0.55752392752337276,-0.40251991316689423,1.4144710748440346,-0.60856479674533825,1.040386591043474,-0.044630031146273313,0.71312349793807206,-0.1282778435157686,-0.8728654042042826,-1.0601744707644065,0.29078604994869561,0.87665529933379516,-1.2256935110303449,0.69117679384893527,1.0923615074415642,-0.30621612736691922,1.3870509353867537,-1.4576883817436161,-0.6699314219257958,-1.9602965146441704,-1.1518825070386263,-0.58971739295483971,-1.4326879051502508,0.037880468708923414,-2.0565838042161437,-0.20316599339365404,-0.92166698731320784,-0.53149659269979743,0.99056180437237207,0.79612009287602115,0.65380543739735564,-0.32306828011458311,-0.57660279113964596,-0.22634282937568359,0.81433032272628703,0.56375755369256408,2.3637152361489928,0.51944420720254214,-0.37003791089591981,0.59629789721537041,0.60890408288053532,1.516404526851886,-0.1002382969353174,-0.089073467990109498,-0.81123749662695088,-1.2923660981145084,-0.14081951614694344,0.92798928586257745,0.17869877015400346,0.67037093618336041,1.1424992736805377,-0.93396674153877768,0.33128329868035222,0.20851309842118271,0.49687988512427805,-2.4990019216857573,0.85640379027017499,0.37382414381085755,0.7923400569820046,0.40923977793627697,1.5907735466356776,0.30692431593382197,1.4361749586665578,1.1746934340812074,-0.2752833355829854,0.085084864951906966,0.98183538304146933,-0.31889805245744873,0.34890795806697567,0.072664906211877753,-0.2876310719936041,2.5841735897598301,-0.72636671541775633,0.72971855673046881,-1.0919072681485866,-0.62808393659812534,-1.4376366140100327,-0.26791263136037918,0.073812843056604543,-0.40787883889643856,-1.1482308795195915,-0.76933498957202628,-0.19085364616088488,1.3565217575475552,-0.19115358095613555,-1.2179224203749226,-2.8517626407677388,-0.16116460536296884,-0.37240449011411847,-1.2848176682180796,-0.39791148319061487,0.45094771577038256,1.6680531345380065,-0.37526797614897012,0.23770414807287232,-1.4570033251043568,-0.7721227782268506,-0.030254092590142053,-0.89345269938283189,0.10997620681134332,-0.11246246627485733,-0.80173394464355396,-0.84077262542877929,1.5339964364710452,0.18585249117050659,0.15639543186238736,-1.3782283212150559,-0.44058860637105246,0.89496122085904628,-1.659111591706635,0.81695555520619823,-0.21190239745296346,1.2288080994024153,0.076744247426527357,0.77386602492853129,-0.20562434909975133,-0.8352376045585781,0.25467638749569027,1.1040368133238116,-0.54353018707547862,0.70427871059628822,-0.007266711711485783,-0.95620057207710374,0.20452149867366279,1.6425081356572033,-0.51455138430128766,0.029269128520943946,-0.36496132052102181,-0.38318301567882945,2.097999624965897,0.16308512073610093,-0.49824448128399612,1.5016782945134066,-0.27333728034757665,-1.0754476888438693,0.49308505705035693,-1.3908011930467827,1.0540881331971659,1.0013052201550616,0.97923610493685176,-0.24090486722395293,0.43574175051469033,0.60929338389726029,0.38190751021265223,-0.19207855107258798,-1.3891860915834617,-0.1064679584197047,0.11782010292959057,0.7644462957562973,-0.84549776908171448,0.17517367176893647,-1.4722505140619231,0.73579558969664138,-2.4354332015911244,-0.75877200090598318,0.40540508325255431,0.34187891302090256,-0.22861918984029744,0.45329112494845375,-0.61594028618976859,-0.1060191865638698,0.73347865584254768,0.4614948604731553,0.83900829938765609,-0.082367874202840377,0.81338464584810111,0.4811984116064647,-0.53097503287225778,0.92999415410751296,0.81292347957100863,-0.39790304798144255,-0.32502427561272196,-0.36830569855896544,-1.134810856479685,-0.40135500207563929,0.20277586258987843,-2.1721674200161876,0.67511917408096878,1.230110700714951,-0.82451091613663352,0.95188378830448273,0.89411809872087655,0.24821100778550181,0.66486393029257895,-1.1489860240356871,0.78262041289915962,-0.4792773547267507,0.87505918563489182,-1.2559514057071843,-1.4718092478532634,0.94888719033269586,-0.075401146425145366,1.0905747099157956,0.9629859409010999,0.26008909239329087,-0.42181728722753975,-0.78074291440989096,1.1958440671982566,1.023099531826078,0.77989872424466211,1.1639055869342345,-0.51551304688327904,-1.70859450697799,-1.345474064492568,0.29354349497276594,-1.3714778183357195,-0.61091053579559151,1.0078956142369504,0.64430031064149285,-0.37319383163422915,0.61750659200690183,-0.29159756053229735,-0.76871399809558361,-1.5191201519513002,0.17628444177101329,0.2718755041403591,0.65800306410251941,-0.23611486430343842,-0.71952748019076962,-0.28462816610941827,-0.098055592256783314,-0.96045814595813128,0.85877956715228287,-0.76096139373051086,0.30021182877154701,-0.2912535604988748,1.4810429397836091,1.0012726586723397,-0.50613963638910575,0.57189380249848454,1.7972391990349779,-1.0467517696010471,-1.5326778012546949,0.90228566019235767,0.15661781564320487,0.52574163844399002,0.012043186709435801,0.41127047761221885,-0.71422004567727215,-1.3020198635675475,-1.0931768381331708,-0.61857606679714372,0.57973595674204015,-0.28375141963153327,-0.50302789486981236,-0.75743413599151055,0.23931067536060088,-0.57379672034253526,0.056446178643835235,-1.6541490654676789,2.6007824841547635,-0.8658035271774559,-0.16443869344898307,1.6369770415686902,-0.16741166295707585,-1.4780657415380161,0.68460114991729382,0.61710301053748107,1.7879249842363953,-0.14177251111060074,-0.40944405471260326,-1.472845771942719,0.47667180741672432,0.70383783687017165,0.99443247914455202,0.23383441117746845,-0.50444453068848805,-1.8305181719298234,-1.8349289889377918,0.68240792723628563,0.054890887697128674,-0.47159109360697693,0.73323337487922469,1.2832185340799152,-1.3360744251765759,0.58528948402156267,0.019755347223901657,-0.12399908785708913,-0.77342542759976096,0.042222851719609537,-0.57583358099801896,0.28822878232566534,-1.294282344996927,0.31236618463607208,0.77863396914717731,0.42645893611272567,-1.345963486033801,-0.48737508516880068,-0.010853462436153994,2.2576771630112056,1.4621311503943302,-0.45498252580557719,1.2483930842622721,2.0598956129114327,1.4286955875817726,1.00748002721445,-0.23404144212144085,0.61270070330969661,-1.6423983812069662,2.2909264944931929,-0.077585526703582625,-0.080427444345383181,1.0425270986903681,-0.32767363178565845,-0.77827132545059374,-0.67833918394542281,-1.6332511630354627,-0.11433827913890181,-1.5955908142313777,-0.98521299606022938,0.17929111902622361,-1.7815752028235301,0.22818148085676565,0.13047325877067725,0.92260228290587964,-0.50857926761607164,0.33218690600100653,-0.15923030938094049,-1.2882528850723058,0.84595465657070368,-1.0042754706364987,0.74756393426941137,-0.2304930090329986,0.94408473680463267,-0.65052551076959686,0.0082741487648740446,-0.50383245085124262,0.2756223700630771,-1.5018767268008535,-0.033921377231066578,-2.0751599611130787,-0.83604705361842646,-0.22986832665939955,-0.72470831495490518,-1.3849814949792587,0.43648477547069353,0.90889630923637843,-0.14147418206479423,0.13915482129678322,-0.82233211055478073,-0.7440641362224214,-0.44024049736562648,-0.69517725174342282,-1.8697993892072691,-0.38714975263633955,0.84413453949919914,0.80504509080194209,-1.8090488258535014,-0.6225757604681984,-0.6492757641446758,0.86306536679356871,0.99503916231240475,-0.18423598520569048,0.47858072511893684,-1.152477136533222,-0.3325757934563156,0.96871584816246514,-1.4390288920379501,0.47629747112706483,0.50866907262674865,-1.8689315811850473,1.3207752018977112,-0.25560715883807689,-0.99666858794595714,1.1780983307008581,-0.22755185066141068,0.61533879584238049,1.2615628274035438,0.89149507024943819,-0.30146710466302468,0.86481522348770345,-2.019465025766106,-0.66372837228928594,0.28376420412136705,1.1776182058928251,-1.178888189822842,0.19379695625755211,0.56061443341072981,0.5005715511072959,0.17792533514855891,-0.19759799240127643,0.76989307576761401,-0.56003425457684286,0.43808838190666177
