1.514038492291272,-1.2762575220570713,-0.34313541100365769,-0.5793050687510668,0.90659275605258249,0.01195046220991733,-0.3545907622923527,0.23055553679099927,1.2955831253410472,0.46807705346006107,-0.37725980326122133,-0.55159509942537399,0.24385817704752727,0.17926611461590572,-0.039831336801495969,1.716705804686903,-1.1052877392850402,0.38465087681429178,-0.18795373508440213,-1.1701999838537251,-1.3416608838101183,-0.13922438807020326,-1.2889044012139714,0.85019598486270764,0.37576793585566354,0.65876230948808134,-0.70390448495904301,1.8174035762935861,-0.45744758834363058,-0.55995527661795141,0.92930365085342714,1.8184334622396079,-0.08358586495278636,2.9922294869687134,1.1736227122326326,-0.61416679388711348,-1.9257466177593154,1.4209622448449555,0.24575562577430013,1.7268760752998549,-0.20626645820781206,-0.88328750326859118,-3.127827176079375,0.019958521806976205,-2.0014491445774829,0.91675469660162023,-0.11359874644630874,0.29682934159966473,-0.029414890460788486,-0.67604341942800195,-1.9905259269812638,-0.068119700376699177,-0.027135449086303404,-0.95818717090871064,-0.62247663162170619,-1.0564791390411403,-0.54383931066825364,0.73849008907418345,-0.34684554577069943,-0.38020223305256223,-0.81729350014605451,0.32426753455483404,-0.15975077990602035,-0.16768341389134295,-0.42403495640552097,0.10339254924323595,-1.2200999518031963,0.062275308572289523,-1.1071446657856072,-0.2005098401613801,0.39687683086076664,-1.8698071761980675,1.2926915683392131,-0.58782687318263649,0.44862018879039173,1.5600297954833893,-0.077070515235140968,0.59618599671236505,-3.0101948338658797,0.4648812837219497,-0.10444164542144464,1.3718718361573858,0.83614987771526794,1.6002681612363818,-0.24455596825102463,-0.86675972771334131,1.9395773048151608,0.26523876728686707,0.32483295485897645,-1.2244906856173505,0.044011645386338366,0.47695759651280589,0.15441218619352245,-0.61455405411391728,1.7377051902792864,1.68506498005602,-1.4822808939263579,1.0898165850374548,-0.11011463886878524,0.86542558260631142,-0.014185086531121906,1.3945854895752452,0.027981471539668408,2.2707240641279349,-2.3516063985910538,0.66263319332356851,-1.0353555289442862,1.5045480541437009,-0.32208249159549152,1.0314580045297232,0.72432196417298722,0.33713959218354944,-1.0728571399164286,0.45657996126990358,0.34769176019721004,-1.4829908266466936,1.149957120221357,-0.24475993065473903,-0.7217516279242342,-0.35296393655777492,-0.7312786514983215,1.1053240836008293,-0.75328922367337514,1.5565038765864783,-0.82786178013303169,0.28596004571662476,0.34414769754112534,-0.12413471112369759,-0.76028881468879272,-0.1488268310657675,0.72030410753548113,-1.4384370070174439,-0.042674785416080885,0.66981366367541673,-0.3261115306945731,0.49455934667510049,1.8524123319263239,0.98412309962895117,-0.51842571417947747,-1.3456644552124952,0.0071471034267491908,-0.7155699851369548,0.0083431403676406564,1.3288520621105857,1.3310110677726161,0.9664502965788937,-0.13988570615522852,2.0081628166062604,1.8074557818714889,0.18795389593598111,0.029539076873193664,0.13966755406823828,-0.40389051744624349,-1.9280367962165279,1.3087636842835879,-1.3843581774510481,-0.90952418281760761,1.1143799864594059,-2.8088920946289426,0.57971973941822474,0.3531652358166365,-0.72380951214997702,1.836274405961112,1.9583968711519044,-1.4987307770962128,0.99611475662960436,-0.33749888376115561,-0.52710226426561979,0.48840081158989596,0.4918027277114625,-1.1834537759912713,0.37800933407095666,-0.086273363855404794,-0.47192155865794561,-0.31234023585831516,0.059489149049026087,-0.34946466975177604,-0.73743865769939498,-0.094098319935094307,1.1425162246273433,1.5383679759643338,0.15049139836979211,1.0649037979744758,1.9457237759375188,-0.13194387364843471,1.1114587698990082,0.81139063727284411,-0.17204388360168626,2.6588897149559596,-1.2888298515720324,-0.077849652414843984,-0.18663419209090903,-1.2007829803254204,2.8943565060524961,-0.007130876158895837,0.43441009315317264,0.45274361857337458,-0.95318220164588763,0.31615844478757943,0.99568424791280086,-0.6809575857220207,-0.18903598260182555,-1.6363698949097316,1.4420146367071667,1.420849982925811,-0.24997213950296068,1.3647831882765082,-0.098320248037996036,-1.3438061158869175,0.4266009885231391,-1.0857572522268506,0.63281105327067366,0.84581687942891426,-0.75903337527168713,-1.0610309428250047,0.21540144173921261,-0.045188856529362297,-1.4181388311814214,-2.4956173639820545,1.105454136599382,-0.48926154328326071,0.47332060400346765,1.0547030101218151,0.18785943789393367,0.44149865000744626,1.3706642840122998,0.06902726101936095,-0.30859348817948734,-1.9688422309176279,0.64532462415987069,-0.521548413262229,-1.8475509176442413,0.19897883783417167,1.0751437382336315,0.30862791135252149,-1.3165250787361129,-1.2815246495037866,1.0920344529889618,-0.21268445775057052,-0.69620560836858114,0.49615460392550459,0.063423908666981971,0.23805680048396696,0.53982835148679498,0.16083098767530682,-0.14715397281725601,2.947590516262069,0.95897324837375919,-1.878270290969148,-0.088531996576866084,-0.42201461304845922,-1.5111909184970971,1.0534499776932418,-0.17438161523686305,-0.8126777284430059,-2.0054480582955136,-0.39871229168692984,0.81147099814564128,1.7380974765722055,-0.81964069408014151,1.0834658548978533,-0.98345160602527693,-0.70110365790154172,-1.1315804884089982,-0.48256261238669268,-0.071289400612958867,1.0453494255202347,-0.13698922859588761,0.19109088558116658,-1.9222450789494561,-0.94766171449010872,-1.6419192412665138,-0.12198309154929814,0.55771657139921937,0.025401605902396495,0.64167362085873147,-0.044542974034358723,-0.30163811783734612,-0.51344178868644785,-0.72524511554961102,-0.7326331127078437,-2.0388588895062969,-1.0718546625732559,0.031941252177228999,0.67242051277213399,-0.77663410516050524,-0.2078665662407615,0.40120237956769483,-0.26179097289227993,0.35289537603678367,0.87792784884348585,1.1823608877285416,0.04826828181812496,0.85263252512544774,0.54369345119538448,-0.43249063775932972,-0.33759025062378156,-0.13138438988449233,0.31986103105386288,-0.85069191289967072,0.15038867852421073,-1.3683512492223961,-1.3052913324800346,-0.67891211588998601,0.49142577804437781,-1.4281579002074349,0.56970664420093864,-0.42912289589008346,0.10713777811239041,0.91742316078091646,-1.762449192522481,-0.057524071069523258,2.1501170097426101,-1.0670447478010228,-0.086761161816055338,-2.140622707088859,0.64878247313818338,0.2641057065387078,0.083680454738464818,-1.4051549429806396,-0.50531073978859453,0.33491311692547876,0.39850536070531173,-0.0072902214505215345,0.42690186569038752,0.68931517078209947,-0.48180105749943042,-1.6864989555725591,0.22703308942290085,0.52735676562530598,1.6028852796364637,-0.88082616142635428,1.8091082825896074,-0.6007796216118686,0.76996371996774138,0.21008780566855031,-1.2647589415952818,-0.97769146763903458,0.70389627572804114,-1.0673702906440481,-1.9263006084110801,-0.28085651231474584,0.84066998794507752,0.33596476934291453,0.077783645003237992,0.10836061080600111,0.96677225456159666,-1.4411162937692872,-0.87817026593994429,-1.2133090851529114,0.18902412802050567,-1.0081699226701801,-0.84512260051629728,-1.20601616802207,-0.39106512511400154,-0.85497100168187634,0.86818057658742276,3.4912294062082876,0.15130045576466777,1.6140130245731696,1.5144287969381445,1.0384964536333581,0.81737255948109178,-0.88361814296508856,-1.6209462472989502,1.1789017034971425,0.43624275944366647,-1.3645469676957962,0.82996924253097937,-1.958860566323926,1.6581219785996459,-0.10990414455489493,-1.2970523598162094,-1.725255426392108,-1.0063587666252287,0.459270770486993,1.1582288049632967,-0.82887941033265833,-0.26124298124967726,-0.77838960068245222,-0.32841828456080963,0.31728740338769423,0.20468241287174199,2.2468064222517894,1.3122248688594895,1.1167267732608666,1.4109875312505635,1.6133212839369484,1.5562075639999013,-1.1031027551378694,1.0598390461034122,-0.717195054707921,-0.60798912645903447,-2.3328665092510499,-1.8651827417307789,0.051385645252871585,1.3911212114370197,-1.054989564939701,-0.061324292445494873,-1.4671314969830749,0.59155833465771479,0.77274942386538337,-0.57505175647499496,0.58524242820616834,1.6708016977136857,-0.34350908614413034,-0.59043728024399844,-0.12514621342799961,0.11853098588418688,-0.48324929468448197,-1.2121971967541945,0.80558132423982576,-0.91959819578222313,1.4215326286905525,0.032963594178189448,-1.5317264381962787,1.1990056568513565,-0.43846242068772173,0.3512117783594999,-1.4571576879607584,-0.75411867335380667,-0.53889283324647741,-1.5817128972727885,-0.28065357533322849,0.55376182914531158,-1.125808320973529,-1.1763436185138729,0.38263918701084282,0.47568861677834895,-0.59387516734645862,0.71626523957162647,-2.2266100498496977,-0.10730787958180245,-0.44635694097514822,0.80464636480676621,-0.46593226700547602,1.1122606976535598,-0.87320234458900858,-0.57055118727622434,-0.67239864026395824,-0.11656150770354995,-1.8507432136069044,0.30681750460197704,-0.23189074704226847,1.1346841637718565,0.9328077019401082,0.23135582422343232,-1.1022707192732013,0.91837000890599996,0.83401651422635859,-0.22079176736824166,-0.19265087680857593,1.4961480095454147,-0.44380034748152208,1.0765126942134604,1.0314405739015808,-0.055740949357186903,-0.51572936443945694,0.98784648876080638,0.57009862276139922,-0.38376409580949317,-0.63547905035572505,-0.46256050819238581,-0.76079327566466748,0.76531719432751899,0.77540965118375627,-1.5062410847315157,0.76126367965547559,-0.83160229041491041,0.5232624176188263,-1.0885714310655421,0.8453921988341897,0.56295739013442103,0.58402016243845489,0.61373272224851094,-1.9390458501620118,1.1914415508620926,1.1432528546267873,0.92982348760112843,-0.50195486114997623,2.2172631236174727,0.77766565306365487,0.53149768979661105,0.8562232465326457,-0.12840643320353079,0.37017734003271091,0.094944346002065139,0.61456772194599463,-1.5713161124032302,-1.212460111209505,1.1416136418342502,1.1474166781174502,-1.8776356755286276,-0.75910702902595362,1.0553909719679611,-0.19776198249244697,0.0098739743448825606,-0.15751255739728623,1.3222012137946515,-0.55186846369672693
2.0928487941184706,2.1469368021352042,-0.60034122552271729,-0.34344269777994035,-0.91251624628225481,-1.317090583899462,0.22192357010741698,1.0490690469624979,-0.015468591647730574,-0.033395804514361672,-0.27481142629611732,-0.87263224830836705,1.1090058560709461,-0.51461489119747117,-1.711830214961952,-0.85081002296557662,2.1548607150497721,2.0628765967099256,-0.9690791127284567,-2.2259879856429219,0.50034045693449147,0.76469478443279182,-1.4507863180754488,1.1680480324721718,1.3073230717086903,-0.4618254712410601,0.32532638644043305,-0.25429603365119846,0.47512992056909209,-0.69145108483762652,0.97943280572889979,0.2273410330369586,-2.2403336490650951,-1.0323421880129051,-0.99055716501018654,0.7351925051374405,0.97892167745869541,-0.26197851412541123,0.51731382911330248,2.4058077567318303,-0.63307836204066226,-0.40978896902907386,-1.2850930944505148,-1.6385406943255831,0.71352460895171754,0.054533078369258012,0.80862252309826688,-2.4966698802035872,0.3902471926430473,-0.65140915547818057,1.8741375163500367,-0.23981535839770707,-0.65545061432249474,-2.2643480069115891,0.29152673339163276,0.42152006340538034,-0.9257064419131209,0.72910995571761472,-0.0043374386866324669,0.10663748146789664,-2.0673372760044697,0.84110609849305529,-0.31813630226541806,-1.4233206324826606,1.1547542334056868,0.67762998453176237,-1.6779091016322005,-0.44792828294519732,-1.5894633924397261,-0.5920249261015641,0.86028382114203816,-0.68568388447249951,-0.30805689408643416,1.619204437381188,-0.19785706575290038,0.87153003064079737,0.63145814413601919,-0.38723570874087987,1.5622827746449839,-2.4477996929246952,-0.64781769082964002,0.21109110248373616,0.44821159291249596,2.0926639200447936,-0.67803211391382778,-0.68230014249036219,0.30214668337498013,-0.21984746332736146,0.95931332982169615,-1.6574709793425386,-0.38813175557710211,0.59881225244817549,-0.61056232768807728,-0.49603421279530652,0.40325414053899516,-0.34771399119516178,0.53652581339886685,0.06111931303517542,1.1163588630519241,-0.16769282231683469,0.19518055791525954,0.39679552256275835,-1.0259338236096032,-0.29146160602013688,-1.2836722325541736,0.90536986446363221,-1.7306788910568525,-0.47096142946548902,3.4006314002920428,-0.70882926758540221,-0.22409275164438971,1.0010243078641781,-1.5831620621409237,-0.68190544435616407,0.78508484725233674,-0.95036775366741499,0.35177017485420864,1.4232030192663605,-0.85328367058656074,-0.93087367229458828,-0.4959780122753199,-0.68467646513799929,0.25936905918348918,0.05329452094318498,-2.8424368907943673,-0.3712012659561591,-0.76853778137240825,-0.46332740761615515,-1.0276210306890334,-0.76943276013110806,1.2210379827657536,1.2838152942004342,-0.63787898108695185,-0.47901707351452066,-0.16270740339119255,0.095848414317568867,-0.18852937153850158,-1.8334159523788389,1.0185661792024259,-1.0667624895877248,0.043495843431377273,0.061502314515720913,-1.0998229168559166,-1.3196951102820795,1.1365294144375349,-0.77447909077891564,-0.46613377516515864,0.046197450733127622,-0.43250086762025669,-0.009398880726593695,-1.2377964964176964,0.50353184589901778,-0.11395117045264884,1.5001990498267643,1.3382599482530098,-0.42986127023595155,0.96042846112684022,-2.7029067239273328,-1.3195200203447381,-1.9179540253355121,-1.0440324491057593,-1.2605225110432299,-0.8315229725979334,0.15629226209767877,-1.0905382374170183,-0.75492760489891975,-0.035245459444745525,-1.2513469035506979,1.4708009337162644,0.71872996715581772,0.18065170617298393,-1.2350713785722396,1.1080986609247183,-0.73371800555556554,-2.0178785450028438,-1.1902746039119736,-0.33780874701658065,1.4072262345246904,-1.6097429680789208,-1.0557545128096149,-0.47965823018130543,0.48497721519386949,-2.1571720679806385,0.10187415275826006,0.39195386715314268,-1.3945620645891186,0.8993176665939937,2.0852982985579076,1.0442896165733135,0.16025476396572008,-0.0077937378043857579,0.51892910778753543,-0.33379785701416781,-1.2797868481789629,0.32330815339535612,-2.1104775641215916,-0.32227401395125965,1.0954560975124481,0.04143156744887725,-0.543370347758942,0.45822521363043045,0.66738130995305156,-0.78850179846156543,-0.025906455960550231,0.67092965090261392,-1.2540435462559263,-0.93022536937467615,-1.4344664093705544,2.5612688369237095,-0.32859126022867741,-0.51745742005446727,-1.1396246906002439,-1.5293937541098857,1.0758808767146664,-0.32545293901969463,1.7708728798246749,0.98966880334751517,0.65552378217537954,0.24527378052935173,-0.39357330668795515,0.1156475349422259,-1.6393692370788724,0.87671535507191534,0.70558446038706391,0.89703707907621533,2.9627210031322786,-1.4794297362433024,0.13865481798683504,-0.018689074038478807,-0.93172058954689918,-0.17697084485950204,0.33869809200664697,-2.0607848698543609,-0.32930635666493652,2.0105589435695381,0.6522127210228843,0.37198201460748936,-0.62068195645045177,0.77295120580406851,-1.171270527410974,-1.4570329212281981,-0.15787949122535738,0.71754579521794837,-0.92987424813248865,-0.090285554848958102,-0.85579064511790492,-0.921870481610086,1.0981212714691759,0.24851122020997751,1.6943190141879527,0.12691975221788254,-0.033775307589913782,-1.4676830489425308,-1.4293410176429924,-0.91945441388993165,-1.5234963878285155,0.36838015446656192,1.2213742599894748,-1.8687200903435854,0.046172061941338112,0.25223893991682195,-0.27123082026273621,-1.9152758346526171,-0.17956378316908253,0.23446062730892991,0.41180689519739766,1.1844060877678424,0.16584670547964359,1.2137597557285562,0.032575422676177732,-0.68425374326508892,-0.051599633377572673,0.65835702144268138,-0.49388076720230978,-0.059119653616493288,-0.31855997855510398,1.0847340948045212,0.31959123869999806,-1.5681533289273086,-0.9268451909503449,1.3139307970351521,0.3689520803248954,-0.46038244772263293,0.95200169979887894,-1.0361871609596698,0.71028705321387442,0.24978189992959643,-0.27680688692743993,-0.23408241039432723,0.58315598598347707,-0.50330827032339653,-0.28760926774428774,0.031472389749175093,0.18979095908962668,-2.7644697216508924,0.55518737965100495,-0.37099074360165629,2.0155744387782861,0.94631392093673172,0.29034473606474537,-0.89813872893568458,0.45929563439166388,1.7311631130412419,1.269363087969442,-2.0767671623352686,-2.000285214687338,-0.9136283482268438,-0.13989220026978194,0.91776981563289461,-1.3058762932423442,0.73266445056503282,-0.17246653253264735,0.15468938599719684,-1.6538227212251781,-0.36415225052802092,-1.2886453075282722,1.0499065351197174,-0.48260058429378844,0.49390110030278261,1.9881229356671968,-0.41158206042364942,-2.2250233426003336,1.7995156924806897,0.53771207166950075,-0.32458884712881886,0.52627339335946433,0.79157040649150279,1.1504253023673481,-0.4486589936379935,0.44923208636564504,-1.8570433282495895,1.7202639373977999,-2.0245773373330125,-0.15129553211683408,0.83945637144162744,-1.3964258746390816,0.18448928182114854,-0.071387016719189483,-2.4099638785287909,-0.49734082165274429,0.63643813097676261,0.00092988632302560918,0.99092874617565541,1.0825314005683158,1.7478835523649778,-0.4725817833306632,0.65630575347297193,0.82027003056800629,-0.080630582095842201,2.022189933990028,1.6955012704602472,1.4752183922405404,0.16425285900949249,-2.1699239131794865,-1.3541913369551717,-0.027450268555688509,-2.0695704469909262,-0.80869884350523547,-0.23060484184514601,0.23433656595621871,-1.2754211511792812,-0.68528836963494322,0.96795890057900724,-0.38596864790767249,-0.62087200930725572,-0.11225576666063124,0.32188104173865612,-1.6159884057400458,0.62351593765954172,0.69050467148162709,0.97879918170653668,0.19875496528276554,-0.13035634384723216,-0.42232162468256057,-0.90097540394513631,2.4504669895977855,0.0026512028879269998,-0.62785034822461372,-2.1897278062699841,0.98392038073540455,1.9196270362378569,-0.81265558044813246,-1.4534291620872408,0.55488154299895087,-0.15449095341895014,-0.42515764691890884,0.97539966088326802,1.0115257954100985,-1.5721466136379201,-0.009707476958151582,-1.0159925870582471,-0.84538761094544801,0.57679322398703525,1.8904933610439736,-0.60941933686466243,1.6460605336942551,2.6782186813945748,1.467240133371323,-0.75467081570958583,0.084996776740531826,3.3546471591685103,0.56312728145441571,0.8144025602820637,-0.60414629780627205,0.27181435311037022,-0.75886890107935234,-0.026734040024620626,0.27173397385403641,-0.15100053412346923,-1.1237130637429029,0.83732099541938965,1.5719319398908882,-1.6125626916549802,0.095492606497416352,-0.20801544063425442,0.16900841862625157,2.4637119284113709,-0.23472810493073415,-0.41901639381649819,0.16366263994478708,-0.23743872972737975,0.137623009708357,-0.38881297650941699,1.5486255896286052,-0.88050475646094872,1.661689754583096,-0.98710965035336473,0.42998834609172054,-0.54252553962766326,1.2635646572657795,-1.0574004843942784,-0.20263802234661474,0.59631161980362557,0.57614996915421268,-1.306499640701138,1.0581942659808317,-0.032945290967547204,-0.35107144656356776,-0.29084981274390337,-0.25105159297987684,0.94770614983122592,0.31853292403016636,1.5607313679633457,-0.70801198934542442,0.10747862149851409,-0.045602229814002089,1.2379516109187647,0.49595226076133309,-0.61228328965033862,1.0808995205585243,0.13621787571162328,0.066823355445862875,-0.7521947853091826,-0.0025348867792507578,-0.1383582116357939,-0.68838176127664463,1.108942396500838,-0.55022129399982478,1.0901478159998319,0.90020091956990533,1.1267703611526814,-0.20674465746348811,-1.3815213557811412,0.25029772732695749,-0.87557292881400495,1.6387134905352261,1.4062676258506321,-0.99040677917500552,-0.72445600748313987,-1.1992322502776187,-2.3690747238544541,0.83098853298105824,0.36859750001390273,1.0938472624494886,-0.16469713531186339,0.69846576301935392,0.90195768841264001,-0.12505641120656288,1.3616726601247773,0.27694289093229996,1.202719848596389,0.050824601893584793,0.19094790865213856,-0.39722966098420792,-0.51523589872157027,-1.0277224708401549,-0.62646099504965558,-0.316862717458127,-0.64601492070744837,1.0163540702983336,0.2780834058983121,0.4188925855530744,0.95311100063634968,-1.5106674579468846,0.61685399294978838,-0.51087586230045745,1.1776444152071466,0.20010219675508928,0.87943898545133381,0.33235551144646852
0.35914775439650637,0.59635624839631118,0.44231323043127491,-1.2841245669808428,-2.0017093889281279,1.7735073413554567,0.54301338568665103,-0.18554567908548567,-0.62547239541455668,0.78940961605865845,0.80587225481547908,-0.19799776649830797,0.85465079358309282,-0.29363981501409875,-0.1215601827058144,0.60618278656257862,0.22936092840892008,-0.62666101163026788,-0.17718693003361183,-0.42706552285409483,1.4817826554640312,-2.2802302312601022,-0.39736493753414359,2.0304170374791304,0.16133460909638814,-1.3367184481266445,-0.87657580403471047,-0.37466293487583491,-0.033183715754691291,-0.74105253521132397,1.3588181684987379,-0.10018666134134174,-1.0576119851700856,0.4578852775134179,0.074733446862303266,-0.7435739555130384,-0.19167369650708321,-1.6196601434842695,-0.91591426084420569,-0.14765997941487538,-1.1888521661930593,0.55143849708492898,-0.33722791492264587,-0.059567824856670358,2.5373407961341958,-0.42113112105503953,1.591681824120962,-0.26078283106891015,-0.49319904784745477,-0.2168605442550065,-0.47872046354824471,0.8167285716632281,-0.6757073950883874,0.16485500587375657,2.1328822058530417,-0.60291893925245799,-0.82938673870143931,1.7763109680957601,0.29706321715278605,-1.7253297823406715,-0.07946000785278573,1.0922262836311636,-0.34345524163815094,0.84069422241619218,-0.53254731564514823,-0.0048607076044609038,0.10371781408217878,-0.030391913462280349,-0.72332535407179599,1.2396281030815588,0.055337492371952082,-0.18799190309355396,-0.58505204575906689,-0.35000135116237896,0.35787151809030554,-0.34162166802221999,-2.4514084697070269,-0.44779784216074214,0.60771620071804056,-0.65353093098910298,-0.33307725691376461,-1.3715513701713737,1.153023082026702,0.85426537817320725,-0.071084300175923515,-0.7510482723507238,-1.0489691872639253,1.2989207166528702,0.64445795883369161,1.5958616940936736,0.044634121574732774,-0.74808856876554053,0.60681875883787517,0.9017372682497462,0.42784876349741086,0.16360532778590559,1.1795490321478603,1.4996838386128764,0.27450373433241099,0.5102672544351271,1.054423898247741,0.70815715660341239,-0.72303943376982238,0.30479818857295615,0.58124515618414019,1.7384385315278272,-0.81669128610305997,0.058247010730261103,-0.134070383638415,-0.77872490936325556,-1.147512627000677,-0.17494185209752258,-0.060244333002454013,0.036477197035365394,1.3718612191543196,0.84688743429136681,-3.0539830265630115,0.18109311406722223,-1.4775773708664974,0.10630422303094134,1.1032126229644954,-2.3694132188532264,0.73506364064437524,-0.45640357017041244,0.24019184869984142,1.1668807445822207,1.3516345726628123,1.8381046348162231,0.3298718107336317,-1.3801214843126,0.22866832591028541,-0.56564220040867852,0.74992583735295459,-1.7096695563213411,-0.41447819932332541,0.11603754312413148,-0.6614644923697709,0.11694387583078027,0.072600856038189304,-0.31940003853698956,-1.0244587711187778,1.1401901142576361,-1.3513893666973269,2.1781603856862093,-0.39802091036204201,-0.34790836178182533,0.69400969176876526,-0.33653583862200537,2.2245648197994035,1.8454885837748796,0.36636388288800703,-0.6527700772451448,0.4890322123914988,-0.2789159212070722,0.26704426185242025,-0.18813251927403912,-0.37467937654899175,0.88058327316425811,0.014013466423912185,0.09811124256269646,1.0765617679494439,0.5937839141781609,0.54291185337490311,-0.12029088616880722,0.53791988188349638,-0.026458167882100151,2.0921645907747779,-0.84894036614813673,1.2645498416056786,1.6992526208993237,-0.019065077262926,-0.49867080156488736,0.43216140318648694,-0.99447994431518938,0.15895118040231204,-1.0293939179118334,0.3701334896689909,1.158332575690763,-0.69251831384133733,1.9518614926162441,-0.24028670603296567,-0.014908283505052022,-0.029637029457017777,0.10113480334427517,-1.7423423042590609,0.15594488238675019,1.6607387194864549,0.69154342937509938,-0.0013107844526133131,-1.7400306498732974,0.49887904173773767,0.028060654351550328,-0.55017350418437039,-1.1087502796107425,0.55747121375512732,0.38609194044285727,1.1497463840101001,0.47304658925801596,0.61338008505051844,1.2944354357541985,1.0653057930586556,-1.3108611354427011,-0.77185281403056194,0.1513645934888618,-0.31090633093865672,-0.39961798563964485,0.5585150638568056,1.2404001667432554,-2.119082881808763,-0.30242553642508541,-0.22466787447087166,-0.6277625183516784,0.49254214085757581,0.54191774930658088,0.43760399542642281,0.56640934542492782,0.74288775366914273,0.81264855019287729,-0.53564910099727303,-0.16687681995043396,0.36306251297465947,-0.24082556421608192,-1.9273072612216355,1.5988652883622994,-0.58222855450406319,-1.6351859343028199,0.714892910568245,-0.68395395440301432,-1.3288877660488863,-0.20178243796696235,-1.1718532077487693,0.3876539616229927,1.6062594224976658,-0.26801070251367654,-3.3891259964271385,0.85543087675466201,0.045440838198261391,-0.13280565952953177,0.31626116176460872,-0.50769343204362372,-0.25255087093386153,-0.4086710308205091,1.7188099033960385,-0.72067409852536268,0.7044913092931725,-1.6682404315411703,-0.90190369641583235,-0.41462263209981426,-0.55313052224702364,-0.020567965109979821,-0.97135390886962802,-1.3858616270587376,-0.6112434294172957,1.0512075134660361,-0.92411013603839076,2.2812563995261437,0.96656390341875031,1.3586807262379084,0.49268771373543613,-0.1924981719856865,-1.136818637473421,-0.014088110649987337,0.25491436551601038,-1.1122155229469484,-0.19686634639435863,-0.49380390423582493,1.3696959628694663,-0.082436197900940741,-0.68773939910826398,0.21692107208538247,-0.89110332670000725,-0.21912959700982715,0.62173270460868613,0.39266631361865284,-1.9229733787892642,-1.0415669854096694,-1.1775644133512861,2.3249772098916384,-0.62039219472383245,-1.0336307513961478,0.6352893545170516,0.80061601406846472,0.2296114955467225,-1.91099466666523,-0.64075098458620383,0.12766546613599269,1.1042565891106029,1.5872431624776462,1.0229614993017353,-1.8658508585485614,0.094828131696504572,-0.80585942144415101,0.46773387596710386,-0.49205531870401936,0.80409434593005458,0.49015438066272871,0.6134235108614019,-1.2214781361022842,-0.2720149921856192,0.33178483638913997,-0.36270465907449895,-1.4911050404765966,0.43926006828828651,0.63484495482365788,1.2502800082267933,0.085751615176199808,0.34380396842910943,0.23735869549886018,-0.47803609351653359,-1.4509298742831491,-0.80383354705667764,-0.57829651037244745,-1.7087787847238796,-2.1260757755321502,-0.089584908595127896,0.30891483866566316,-0.52901195512819765,1.3131594615850295,-0.17322582600318923,-0.85031045356335566,0.17433580113157823,-0.49426878185289252,-0.83366390100919097,0.025008296425689396,0.099593582980861822,0.20839099481979032,0.62384681568582123,0.11500683590187522,0.52077539162955011,-0.79733614385671114,-0.17643651099026977,-0.48305879815504926,0.21088197000263045,0.059068117751140806,-0.798575428029627,-0.010138233064765243,-1.2042596963047403,-0.15932582880537427,-0.29473373846944501,0.40210830662386787,-0.47713422059149058,-1.5388124495910553,0.29890669329557429,0.13554585567024152,0.15101740884546944,-0.5721562341628712,1.4088071059048592,-0.34679729858239267,1.0720323724675778,0.45760179558305486,-0.87076385719567651,-0.96165943046447988,0.74634242995435029,-1.0952909165106308,0.79337500169435515,-0.7295805609441246,-0.14819576940480358,-0.19056156621172279,-0.37879258361773321,-0.25204037101441668,-1.3212148973458102,0.04455041848351287,0.56038445244425084,-0.49427752702240774,-1.3348663959493141,-1.2837938878791271,0.3480972638823982,-0.5945798898398954,1.4795104516688284,-0.59671715057771646,0.75997461245947273,1.8415050568322116,-0.6489116638193333,1.656245392156948,0.8673973344613749,2.2501070719759451,-0.073674347657462669,0.12101404835236361,2.671713048306934,-2.2773178054723942,0.25389008662204965,-1.0617701824109982,-0.070424807862253094,-2.0429812186654619,0.49966287375378454,2.6345806514629855,-0.21499387467807182,-0.21621515624710472,1.2471823114156135,0.78339790055983494,-1.2172013074914954,-0.79891185833647471,1.3105311254716696,-0.16368409670596445,-1.0666190351768099,0.047005145754391513,-0.022520435994471479,-0.7296455601691928,0.11290096113401221,0.69116114398180384,0.13097159457426188,0.44002172085892777,-1.3042923923311347,0.044701601768373435,-1.1674310945900941,0.32048142395793838,0.0097782688652143842,2.0393148176058449,-0.55378809956834141,1.1217396939230329,-0.90909267495982693,0.12830250658875053,0.89793343009479187,-0.17820669215653154,-0.11844959297577887,-0.63136252609347798,0.16304321738289998,0.37429300040168267,-2.0794360034191941,0.42577079572032378,-0.70341483273765704,-1.5634635929579628,-0.53208102458354256,0.91870657579409276,-1.2182866364779268,1.1371350187680298,1.3672216309013874,-0.28028313872865679,-0.032695423845458552,-0.1369821911152585,0.92542348096928917,-0.53212804250275869,1.2617734284309816,1.2220800849170617,0.62106631578746352,0.293676414869324,0.35299203381358252,-1.6331582061739129,-1.6924121799959941,0.24727415268988429,-0.76870575124693152,1.3151850740454851,-0.41102491251011902,-0.90029886048239083,-1.0048064691075755,1.280569667407738,0.74662868923443559,0.78959704127213659,0.46884129050117218,-0.93900384275165594,-1.0643834036839537,0.33486592946527466,-1.6260312650466808,-0.79118522056630536,-1.5487255611605064,1.221519900931995,-0.40961147636200201,1.4108197765082913,0.13317081347829784,0.67716832012734762,0.47182561387104666,0.70123055264994694,-2.0471587191763896,0.91484915562976665,0.81740388143586851,-0.61286676029234222,1.0419370912914832,0.28979919132690146,0.86719504821145088,0.284605121787886,-0.070164737212395065,-0.88383959711691551,-0.5627709261478091,-0.45744417057525821,3.2988491010512329,0.28793585869433785,1.3550239878247341,1.6840990722759939,-0.74797003384292648,1.8271558597000768,-0.31303292481170286,0.69685411749680592,1.6539972827731533,1.0120731776668277,0.59630992610008859,-0.81701482431235961,-0.48505592108147927,-0.45129894969581402,0.35467812158009204,-1.0314691668341751,-2.3633126544390981,0.74083672203869422,-0.048531834044172703,0.47578624648131485,0.67214028038424456,0.79088192090322673,-0.20163103517215436,-0.34920033447256893,-0.344056207942674,-0.26208112174583609
1.6976446596626764,-0.67626947612899235,-0.047669742770875066,0.84621298430413405,0.89349336774808497,-1.2060884679907071,-0.81441896450999485,-0.31683116073105222,0.60729805671727011,0.097984089098976421,0.15850096352252932,1.56288169088316,0.46622021021779902,-0.15571584819290474,0.055597056351061006,0.98509020451788032,1.0499393177456382,-0.83453725800861789,-1.9746058679789955,-0.54659377643640084,-3.5911209739415475,0.046083803427566586,0.35096816170701689,1.5713971692823547,0.88026678476305353,-0.39657855181635365,0.41666831875956056,-0.059292181336041312,1.1546836795334814,-2.1417103769960004,-0.63458927163184886,-1.1763283230114421,-1.098393714700818,-1.0755824703676817,-0.50900047794106962,0.17914479529995586,-0.035289203290099116,0.91167899401450592,-0.32131270935789791,0.59911839210281315,1.5706033402884354,-2.2258230110954753,-1.2971462348124358,1.4733722005882244,0.17730720037927764,1.6136225833476938,0.65286127581073705,-0.48023996149457004,-0.93980645827719078,-1.703565349000876,-0.20113210837467593,-1.1620765594202671,-0.68359551926809137,0.35769294158290332,-1.0616568882055295,1.1794353939530875,0.93531297827806004,-0.81736622676578963,-0.90415233406390316,-1.6463847543272638,0.67530972174020798,0.21400721491339919,2.3106366185350864,0.38296409938554593,-0.72045163190633332,-0.5124612360427484,-1.1904256172511483,-1.0695479113272015,-0.42116911891083536,-0.90424121905539712,0.23324222985226356,-1.1376810583313173,-0.19184848081708028,0.31834926787081075,0.034047440869424621,-0.91580565416313453,-0.79232598804529364,-0.56686981108951984,-0.53187682159885219,-0.27912659458800709,-0.29323294183782517,-0.20087054280008743,-0.40075370325730986,0.82915329750890343,0.78241141880134113,-2.8022367984990613,0.86544753892312287,0.82125441833822899,1.483827154099467,0.57234967153250971,-0.35783280448534377,2.0795922733943519,0.95571800125664619,0.55409874160730299,-0.70292002751753802,1.3290560185917413,0.51432977755077958,0.29416598872592559,1.3753512996033608,0.067383274133702042,-1.2107487574571274,-0.68377420808174927,0.59650998163523605,-0.17733891048436559,-1.2475728339244847,0.12441033849441062,-1.976626303203207,0.55575261872761417,-2.271733772172932,0.81767053161824177,-0.69548510614355641,0.35028432597648673,1.2648771610833094,-0.20379102928011683,1.9934979991889579,-1.3976886515528277,0.33324331312158506,-1.5620609661033003,-0.49326582623913229,0.22772595406324012,0.83066089631980911,-0.30838029882544254,-1.1871056535496671,-0.046296679783769959,-2.2414994041584002,0.21215971885466642,0.73511330026242105,0.90962208119306776,-0.26767685327880458,-0.82704315092143088,0.19297848435148687,1.6793777826892313,0.49018510812659671,0.65034588793076664,0.11818666337701297,0.64688909439849629,-0.3386236349831675,1.1484783583783196,1.7080697917610519,-0.65135370963021333,0.058926381346217881,-0.073536495873231383,0.13232119305947773,-0.23168434843888497,1.0231546581240278,0.37710540568835144,-1.1015245743726447,-0.75875449270449236,-0.98758597208106103,-0.043486363014770116,-0.64927826223881435,0.097273815009711398,0.39684518754072112,-0.8771855886808626,1.3622966758589461,0.38695068062942417,-0.55563878794795751,-0.26651229855396563,0.60823525262715838,1.6373207372935821,0.59059972917210257,-1.6172836963141988,1.0422434548205426,1.3413582993821047,-1.1809837770914604,-0.68715317127803655,0.82340512719957537,-1.1912420391628522,-0.82639301236368012,-0.099947342040963005,2.900896232276565,-0.14477076666408389,0.36176130150599123,2.1176912581066403,-1.5637001690973404,-0.20577764605659976,0.82113227420880364,1.9100114081827917,1.1467588729963243,-0.12559893782592724,0.82845643494266741,0.64324231628435269,-1.2093618565584292,0.61220408644717517,0.63382407257878504,1.0087821243726431,-1.1519503283681114,0.058958655542706101,-0.72214520551290196,-0.916333857516346,-0.78461133644120762,-1.051120593398321,-1.3073731531550448,-0.43811968054603218,0.52112901676162404,1.942618771765626,0.65337863071623636,1.5185743539216103,0.502609742088303,-0.45635728435235029,1.2733102643769301,0.57703322659763179,0.75882961398704341,-0.54386428958221877,-0.55393486784273005,1.3105482107680235,-1.1544432847714359,0.0013248870073431327,-0.070415139954120326,-1.6666823432022286,0.87342697799741564,0.40558260871993806,-1.3202522870888449,0.22208498245407812,0.17053539719287675,0.2592549237103996,0.44073360784066357,1.2288295578061665,0.23938730318209134,-0.35119619059473145,0.49570479315855959,-1.342294231826255,-0.0056114234012985603,1.9871923423793127,1.8616542188988314,-1.5183211851867766,-0.37142753863855216,1.6587696331778461,-0.79031573222122342,-0.38176594279854215,0.37463396087573153,1.0483554752552597,0.56293663984745457,0.38616669506140289,0.63172281260289886,0.23366783726913309,0.74177756889791624,0.31043505575613056,-1.0372287869509129,-1.163733498465378,-0.32687501560505317,0.094594239976724948,-0.93541565827590423,-1.2886698407927339,1.0316633709172454,0.35726124253619951,0.54000717477361693,1.198717100764539,1.6361916687071787,0.5364068429324742,0.62198823133038283,-3.0095962283931859,2.2651951185657486,1.8742521664998713,-0.43642335983325142,-0.07835523239188566,0.63386124414004119,-0.023075179447345145,0.034567695102245374,0.91108641194026274,0.6947034661575342,-0.050732946308561268,-0.57458421199515441,-0.31908207455993709,1.5096470302815321,1.832524106111562,0.11753189700266459,-0.24675113061776918,-0.51838446129780458,0.11276407884509178,-1.2492556250512548,-0.33213291457177757,1.5594048467889563,-0.59164497115674064,-0.26127523104845374,0.53492037727932384,1.1647385429418644,1.1562493386642043,-0.55095257192109603,-0.84292707592369143,-0.35815854152768978,1.6877136168851512,0.48725266096973885,0.04751008757386356,1.6978791840173748,-0.30682641889365486,-2.2880989214562466,-0.25022339837450541,2.2296554673111415,1.12952259969222,1.1301639558878738,-0.67466364016046299,0.91352964336288922,0.29568605242701068,2.3313282414476664,-0.80592125724087249,-0.29014337356846137,0.667049271854113,0.61977881662410861,0.66074470134436181,1.5611820678387818,-0.15010815305891975,-0.63274625252914796,0.89040145352056399,2.115211063737521,0.50101515880396752,1.2687596895944415,-0.0959100126633253,0.7919220015680577,-0.123953424523881,1.6252914882942362,-0.69374623836853511,1.7399400516737971,0.18071489826555032,-1.2593371447359796,1.6028046630134025,-1.9101991427916925,1.121320528838184,-0.716643738244373,1.6715564672023684,-0.13754974059614455,-0.76094397038653361,0.48910489206886565,0.95089525455736101,-1.2941638242681814,-0.45788254778606996,1.5634968919856951,1.0909891128448712,-0.045475106208808173,-0.10287621150626139,0.26219280217856172,1.0443584233919128,0.52150748118765389,1.2842582476868458,0.8433236124954675,-1.2357518444176063,-0.32270536227205926,0.66723410284211582,0.50912666974350629,-1.5957515311113515,0.20913925119217125,-0.74093066556832154,-0.66676773383827359,1.5221601974936818,-1.1560898054725228,-0.76268266497499348,0.1047227919607928,-1.0754814958375192,1.2590212867177855,-2.0201219695828154,0.8120191799178641,-0.17360384176710214,1.2470172677988876,-0.69302486689723897,-1.4978328692466685,0.26711999702619404,-1.1076635847074283,1.1927792651527629,-0.49869064848888561,-1.3086675805761099,0.19100448347688753,-0.06624230431757093,-0.38622364010877758,0.97564915733157753,-0.43726511416936126,-0.10167106384668911,-0.42067274375691982,-0.36555416096383553,-0.042173523263249267,-0.83128385828823725,-0.41069549163114205,0.044491471651603248,0.35606214865146252,-1.999669852737382,-1.008652733778725,-0.26501279889975676,-1.1390668692353096,1.4467313812666927,1.6396867717718537,0.28269049559399456,1.531008816193917,1.4802478757430861,-0.89814853060120237,1.0357780637789378,-0.20623699930938494,-1.9566371853066364,0.21371690390575604,-0.92836063375550926,-0.73511360516985336,-2.0311860150587373,-0.20913296493455916,-1.6085031074881289,-0.21770155505156788,-0.64274892657878568,-0.22796362970743325,-0.32135551668262219,0.34678725777297709,-1.1339673133753163,1.132368413069148,1.0888060745423747,-0.55489697095696955,0.29986036198527549,1.4118146625573589,1.0156584961422048,-1.1232628479797615,0.71280570641811991,-0.98122351028653587,0.95602763214321518,-0.78309146652119033,-1.2750587561629789,-1.3303693298398185,-0.38825403593139618,0.96314450310455324,-0.078229978426084687,1.1679435935917284,-1.7285940295938169,-1.4927395833575432,0.059470460183455809,2.1057807488086584,-0.68697831799300213,0.11185796638757427,-0.924228700352832,-0.55172876702076756,0.11879978356538116,0.22502870058540247,0.097316984828751743,-1.4091501241208073,0.32814611783284747,-2.8991003190443028,0.70444634150664343,-1.5260666199810136,-0.025426207709971189,1.0556813656681932,0.5372601371573027,0.62851009950739567,1.3428449792967412,0.28800734323030602,1.5440057024294755,-0.87133697095999219,-1.1155428281986708,-1.0156830950539002,-0.1478850796034388,-0.72593998812290017,-0.90301605331035117,-1.1262052958393465,1.0741856497885087,-0.9964165623343112,-0.21925739538314404,0.34759987294534278,1.1048050893756636,2.1290566912307209,0.31631195252484612,-0.5010616238405643,0.070569516315144479,2.36515098274513,-0.205829445109728,0.6185256008502038,2.747046115823057,-2.1497109542315838,0.12889020807357573,-0.93627355626484055,0.41321212402336466,-0.96969429623732695,-3.0628722128652908,-1.4853213330925785,-0.30006967949071028,1.3536964753290652,-1.3354092135297393,-2.152179191433703,0.016048271107599626,-0.3255726074654377,1.7880815332166202,0.022444952494726257,0.01259451901631678,1.8540034279756894,1.6832869398972321,1.595388637395905,-1.0334830591468671,2.8735528041230674,-1.553598113208966,-0.56414728192853769,3.1757869039615776,-0.13548370619645683,-0.68468559678953589,-0.93849832056874316,-1.0642861866533122,1.1859966543687901,0.47219165895711041,-0.37049908521392089,-0.27093841945860586,-0.14410245932456933,-0.97200449238574571,0.13881382018814553,0.8489445261677081,0.65702004018050653,0.27681780894753244,1.1239090744333378,-0.097989095970069509,1.3445406242644655,0.32815734460224899
-0.02745019923082544,-1.4862475640007129,0.11857130238307796,1.2614364989352984,-0.54185168674658235,0.29017441027487573,-0.4593756709441853,-1.4728902962395147,-0.65759785172022811,0.21122486478723404,-0.15770850014021442,-0.43679233326768624,0.252115991789509,-0.32307741737422141,1.7613517726704875,0.019255898580786825,-0.32916145156368959,-0.43874356942193748,-0.70280121459074607,-0.088434332887556588,-0.54623944631730192,-0.71365472561548871,-1.1237015084554109,0.94481480715305388,-0.1297716973347246,-1.8270524675860103,-1.8250671961491274,-0.52180691951533442,0.75490669469223948,-0.19145266747707512,1.6538106239981119,0.63721206526878493,0.77772195539033306,-0.75473893149005844,-0.25662620552176474,1.075653493215682,-0.035855391704194516,0.46832502274399013,-1.6525979545949712,-0.90857877799191367,0.96619176273081253,-1.8973741956013925,-0.85353710746973821,-1.4719144518041392,-1.6623515742635209,-0.049620760279585632,1.42866854656502,-1.5010369146910039,0.22776449686251954,-2.6543637986873239,0.31178049230819183,0.87943304918969345,1.3416115381076934,-1.1018322912766365,2.1301545361670478,0.092967638121586232,0.30440605822485611,-0.75977693969111004,1.1463570366131437,0.14449389772476268,0.30590597836093536,-0.98750109550333387,0.80572685398283772,-0.099289895818091584,-0.030398891747895933,-0.64490404096062781,-1.7413456681003496,-0.14388234019192264,-0.29194760625590749,-0.14576268517887001,2.0682796312789655,-0.30409517358735766,-0.92368235825624234,-1.1763460705739575,0.57262974990132109,0.61304568112383262,-0.55604025245579336,-0.6461152922560871,-0.49199406137497359,-0.54816316690475053,-1.2251116151193997,0.1385988686796214,-0.92035897877698858,1.7890155489766602,0.81915251537699219,1.1588791603161623,-0.75435801905874722,-0.70980162596800378,-0.044408723923766456,1.7933046107520494,-1.0104108319266207,-0.15858584223143438,0.075407824660508438,-0.74328299090412364,1.5115171324805172,-0.02837705970310889,-0.30622669403909525,-0.69817929777745813,2.5428100723768066,0.71009818015994575,1.3978596336683247,-0.032869821010887965,0.88047029085955852,1.7565166159435495,-0.14371368520089237,1.2561663678105799,1.233768845640526,-0.77974672142427792,-1.0076720534331336,1.1011703407906712,-1.4032809595710243,0.11974144923322072,-1.5389118755553008,0.4194894626014003,-0.031275098789998138,0.23996147822080163,0.74202211103660665,-0.56050125709614196,-0.62098346480733613,0.76275043238952245,1.5102722380015614,1.2927619471893785,-0.39232605681009602,-0.65819074002918809,-1.9683096147258772,0.49144644467845039,-0.8730915606322408,0.51375065496989702,-0.14010085300330552,-0.37916021329805055,-0.56466051825525088,0.21644485925883469,0.22787415846266917,0.15660833009177605,-0.99252947486211951,-1.6982510779727626,1.6519553349229112,-0.15208600032762778,-0.93868052729039708,-0.40318763229778271,-0.93264657579570043,-0.077605790615060913,1.7807300622284681,-0.64627960410896945,-0.81952636866010631,-0.65081117410574763,1.2386428757266064,-0.48728688012100274,1.0847489356936704,0.35168673225879249,0.903062006184156,-0.90625818091424759,1.8229422295133848,0.7723178267670241,1.0838035908335617,0.53730702060037117,-1.7026073535504658,-0.59829164018015601,0.15986396830754168,-0.24609405662894074,0.71203557993376132,-1.139836589171576,-0.65117844260877367,-0.74087917894838617,1.1387397628324176,-1.2248066323297633,-0.45539669525562543,0.2218025297026312,-0.089259477029829545,1.4326849901286445,2.0554746709873464,1.2387038773114964,0.62225959502595185,0.31453437677023138,0.61077759475235971,2.368765456780507,0.61629778451654715,-1.0226748902013894,0.86017576507988092,0.35772900735436869,0.49083425530444491,0.078136226499399067,-0.89257661563805979,0.023501435092426418,-0.67934971824574286,0.79237098538528727,0.07825302459361512,-0.5636530259161997,0.64311097008305618,0.93871808907411547,0.92481681739635035,-0.029102718418269891,-0.098132904144750066,0.9422073720368781,-0.32656855599682405,0.55542961602026886,-1.9057853037079489,-1.999830395982179,0.5619065643820923,1.9944959487777014,-1.4851120005657872,1.0919180441254646,-0.29938986257459715,0.77853335661751111,0.35455264675947035,0.32083653940680074,-0.73888261754854101,-0.4375429247101203,-0.38217716710961763,-0.10162491330173538,-1.6830619803820008,0.40029156677003358,-0.058427787978115514,0.50534198870190017,-0.011266459790593436,-1.6640990243057707,-0.12813800692113672,-2.3956560676087535,0.82388592890733625,-1.2164366114874445,-1.2644647784965344,0.80122696861544906,-0.14367792317407829,-0.42080588609526681,1.1945600915018004,-0.38012427344373134,0.38108145946887939,-0.69905201027551267,-1.7347140490433324,-0.52546395336282103,-1.5535228885530994,0.44945718628517484,0.70839302013532135,-0.96728826175820204,-1.0616753393819747,0.74329233121873051,-0.83084091238165558,-0.13771024756316608,-1.1993210285795859,2.0647745643419375,1.8666374748340988,-1.4491032072241612,-0.68322575325133106,-2.2048100799564336,-2.9531075363039392,-0.091055275189543913,-1.4774422596291354,-0.73668298365154417,0.99646792922925176,-1.498349651675827,-1.3678652730066203,0.14473461829238243,-1.8120361737079269,1.1966826161216026,-0.83808194427130933,1.2188247126970204,0.88987789927075756,1.0105911182403859,0.60427777008272809,0.85482667845883586,-0.21812992713966819,-0.87180165501216322,-1.2458269468607421,-0.32665017195315948,0.33492558777932241,0.18488996007760752,-0.051756293893438741,-1.7240480890759315,0.72945461770668141,-0.26916289933331017,0.34390120217310127,0.80750329985786862,0.037079154868008606,-0.12649727885932377,-0.53859413513258436,0.8964438137279106,-1.2242076835094289,-0.15120197314975758,0.90301932789023409,-1.3892880798273628,-0.9250493941882787,0.84848249960014455,-0.012033805580439075,1.2142599846381401,1.5782386460264879,0.83649730443675818,-0.63187269596450724,-1.2738044034006273,0.56980272603604853,0.18721360773975781,0.93710381788091579,1.7121046156044903,1.116760788351876,0.46242858787243152,-0.42841283382537981,-0.17172280922583191,-0.5404149597644704,-1.4917840418954806,-0.17989041825359026,0.62575975118248639,0.19359366894150204,-1.7692386906027391,-0.12267008084253259,0.38365626400257319,0.5094728830651426,-0.98849652920145248,-0.1570750430070513,-2.3049451462882824,0.40079601468464571,-1.1424956742083554,-0.86137458227379837,-1.1251342725758373,-0.14003536780440598,-1.7500142967633943,0.087389413638030294,-0.67667812940170735,0.96535594873521413,-0.15839064159442665,0.72185685479482553,-0.23626552180782895,-1.212541839673339,-0.26618502831607066,0.19107129151923563,0.31650244459881594,1.2969941333738317,-2.4363238095426061,0.39474815068361729,0.53941927356822839,1.7628541732574499,-2.4080161682703518,-0.80956253926826149,-1.8092096538195934,-0.8654190702665876,0.32925895654339121,0.30939197761245285,-0.81615217309684285,-1.2260954351784361,0.89061955809148341,-3.0250902443378251,1.5303759968993247,2.1708600705044767,1.2428200523364217,0.29704103760149692,-0.57219010796657288,0.7366657011368084,-0.64206092347379606,-0.49177545792827992,0.24978034830362686,0.404761291845953,1.0920792061921092,-0.52510802517922439,0.56540689593796134,0.40583596576431341,-1.458645941297056,-1.5042948981501092,-1.0705291047527261,-0.67244698757372823,1.5177433186947096,-0.80906888311918634,0.39298497474622829,0.20317639557079162,0.48683900776820188,-0.48238831299791801,1.0900221909845262,-2.0908993739139583,0.62097535688180416,-0.71486639437164468,3.2085742433982238,1.9454749366814696,1.8213108313757393,-0.067840390927857264,0.56395028523188018,1.3020055926342571,-0.84033209288554933,-1.1108180839055231,-1.9284468860635415,0.94854121865829943,0.5981243134745674,-0.020231197371465386,0.9343410848078143,-0.47431573213471606,0.070771617067466569,-0.74354985956035036,-0.064426783827184878,0.11780295146738486,1.3358130247392577,-0.41867568018602069,-0.59795820915818376,-0.78996823142555728,-1.6996111684521917,0.010200983504419569,0.50082241933380156,-1.3464994357391897,1.5539606386665643,0.24192750564078727,-0.51932249493979543,-0.73084783096691619,-0.45217350445155247,-1.981806130450688,0.19326859224527435,0.074985755541242344,2.2683717325646078,0.67232449682761564,-0.82744934052009145,1.1917496727708348,1.1365840994501062,-0.29408339638953251,-0.69393656948406346,-0.7347574424281702,1.5780145540879036,1.4383822783857954,-0.14308664655322278,0.1316428697759667,0.12017168862622722,0.99858627866483696,-0.80036374017106993,-0.31137560075857634,-1.2320463017426309,0.14614611963129442,1.0313631571635298,1.2518210019205831,0.88132256107621865,-0.77773494746523986,-0.0014577180727945126,0.93174064957229286,1.6476831473142559,0.075414064171982209,0.50901576017662498,-1.3935590475804356,-0.60773336051601101,1.8776221297107132,-1.2620250897948673,-1.3123297287628684,-0.9760510484501751,0.08018989051138696,1.5923676770535751,1.9779221192440528,-0.76760766619122045,-0.19627516857571212,-0.20580363457721146,0.41638168075812659,-0.41816547916597158,1.4038688948338665,0.47518834674316884,-0.56681349332981945,0.87785229533849285,0.51292242824779477,-0.084763389305788764,-0.66196330524617042,-1.2645223984419727,1.086558651576093,-2.1084298931583971,-1.6323373890411321,-0.61521377537021704,-0.013942489923236625,0.52186660756532588,-0.47561797140751932,-1.4537788411636188,0.58558762408029474,-1.6231953693496264,-0.37402690491747714,0.45309367514098919,-0.90136185649317102,1.0483417272716682,-1.0733863815808478,-1.0946580840321611,-0.061632253905330878,-0.48014557324003398,0.061815428135043496,-0.8582397067447648,1.2045981066726241,0.7897559220430399,0.025703273282184507,-0.59162996026179271,-0.24058114086843879,-0.83955792893711823,-2.4345276508927647,1.2165064349688839,-0.43645076685428869,0.68131508797927809,-0.68625593481420377,-0.87814454652582918,0.76435893999066251,0.25146443410093267,-0.11760304257729147,0.067681082161032358,-0.17023383270557119,3.0383201564112499,-0.54148788006977833,-0.63544924160600935,0.57707249897077373,0.50744406818750309,0.54827377508667108,-0.97726509477736034,-0.6600134027889013,0.92013604312613284,0.52121738360161007,-0.45596877835124028,-0.38353727183143366,0.46126348003070261
0.74922100334697972,-0.72399569422110499,0.47197750235851266,-0.85106998263908096,-1.3562619040252428,-0.074668181950974702,-0.99343614529551461,-0.46862942169426319,-0.00027929672634947655,-0.8998864907643378,-1.5821567550971705,-1.3000586042270044,1.2679296229186776,-1.1302416115195102,0.57341227327303501,0.15866053788471024,2.1576430314064949,-0.46967485858620306,-0.8596044627625532,2.3555573831395926,1.65768751146479,-0.76950548829503929,0.45419109725322637,-1.338698310575589,-0.18754271250872417,-0.65646256757227428,-0.86084837160198135,0.47826051794073737,1.6323435233893946,-2.3940053286737308,0.51955293140947578,1.3374156734449589,-1.2703899253868518,-0.54631899302682574,0.77865751036592734,-1.4741094048190087,-0.077466583131725261,-0.5066275833559688,0.77529210486209954,0.77563075224852884,-0.81147737284900845,-0.73838695905888363,0.33107022605956188,0.54333681155668756,-1.4513874262718107,-0.0031482675406561277,0.36265156052488917,-0.49725534085584389,-0.1963038122914384,0.5358153649046089,0.31792570201999826,0.30261477212063864,-1.0068495924806711,-0.60685191600973809,-0.096102342728726559,0.7028363899719493,0.44213155849962954,-1.1237095891456146,0.0091155452970884017,0.63789671997697328,-0.191126923550093,0.53988681081213952,1.5360440495799932,-1.454463956239008,0.25222988446374178,0.092800805703166026,0.08932155639844952,-0.58842168747252632,-1.1020431028213973,0.42908629841313345,2.0531127472158843,-0.58190682402490146,1.4582437363095839,-0.02919408245660635,-0.53018721736218999,1.0556179477214096,-0.068125369044710296,-0.56911305081354391,-0.14069965210402646,-0.16199652176840915,0.40525983286892819,0.47261266715179256,-1.3538310247551066,-1.0877990540166318,0.60690801485565482,-0.41307566430551074,0.252730272435644,-0.78651582375407358,-0.36944906833102409,0.10463792704756029,-0.30554797781422616,0.31970371688493715,-0.38537976908696131,0.40058100480823394,-0.700179626089378,1.9256439378474171,-0.050130318977975118,-0.094495987689796709,-0.061351042765379289,-0.8629244071507991,-0.40872054779465805,0.64791753702147814,1.4050720841245343,0.32603831278674617,-0.17663924980686305,-0.11455936568181359,0.11054321698729443,-1.3969488590633097,-1.1580875185363462,0.29404423054727963,-0.68599717413999661,-0.53382867101162035,-0.84162306035988632,-1.1137543858209369,1.6387317166664654,0.74311261960808961,-0.67550785197841923,0.066285912115828946,0.23482732394964786,-0.058291986393694067,-1.3697943882631272,1.5495389224088005,1.5702771380951741,-0.67803427974413211,-0.16703207875752787,-1.161434762163279,-0.19134185407186058,-0.046654852216329611,-0.95228293524388952,-1.0059234596683106,-1.0316386257336658,0.33607088257481454,0.14692326113758136,1.0394831453860702,-0.60146637637215794,-2.0789089153898774,0.41209482833265132,0.54257957897946441,-0.43925420794555109,1.4491276280598133,-1.3543345320761666,-0.42165974113258708,-0.1429581917876046,-1.4184678714423637,0.66237181251218213,0.27932793805481465,-0.57550228067804388,1.8427778916315753,1.1506010898882879,0.96283170816056318,-1.7166120370847384,0.12848643965001039,0.16515878916586149,-0.18922649730883676,2.27313993442504,-0.27279471445857856,-1.575448010231522,-0.8738483707852418,-0.60101851472376466,0.043137333191879346,-0.69807896217386367,-0.42285480207494985,1.3115708209797086,0.89168473172276597,0.5631617217661069,-0.32961732631835472,-0.54510661711935071,0.18980084046144816,-1.0774365662723999,1.5347194693301083,0.44827703575650768,-0.32593098756718492,1.2858085962833887,-0.69410012503527152,-0.68116074216974187,1.1118260984676045,-0.48673732198116287,-2.4477261317630941,2.1797961509592692,-0.88596421264971248,0.95733539061283413,0.68055971987704134,0.064170189591615176,-0.87891118321805062,-0.072069907454506782,0.72031346222643999,1.2092862172183698,-1.104413912124488,0.14954244642383971,-0.26545201468052326,-1.022369189908727,0.12513881715129405,1.0672043061845853,-1.5127406069397595,-1.9385834449068582,0.73650981795993187,-1.5907407522844024,0.095550884116483784,-0.92431023777020438,1.3125833321266651,-0.35753140694547419,-0.46979301099137205,-0.13231540062869254,-0.71594735250823804,-0.088099263603288278,1.1813241943587836,-0.85025738813377294,-0.52594186114002361,-0.97815156217862831,-0.50221378069539202,-2.9118331738957557,1.7258892025283181,-1.429987360212706,-1.4124520435531858,-0.27742949012121237,1.0144096716435869,0.96833652720673702,0.20441880506420365,-1.7724857433862222,0.20322139247772836,-0.72497440073045305,-0.10604869220313756,0.38019663118850211,-0.024946311689024399,0.32300832851210115,2.2371427080736761,-0.069642623331433576,-1.1994298179476202,-0.55231977076298056,0.028645418258625582,-0.45710603071743267,-0.68726998191292921,0.58761431172463896,-0.073701387846619351,0.077004525569552895,0.52164760820529144,0.13016940201628138,-0.28345097619251164,-0.85592424423589331,-0.61639226436542927,1.7448361162429633,0.47794206656249011,0.67953207392823134,2.0665111003825474,2.1112602487017074,-0.21724798111621113,-0.073329009853383295,2.1713604262804047,2.0276720438511404,-0.23557876444936804,1.9039369695381287,-0.98001685646673342,-1.8081797654151048,-0.81116646290530181,-0.046808301087846685,1.0920700880100309,-0.84684661180274801,-0.52797559223615798,0.63232096786872916,1.597764425358603,0.47874810076119839,-1.0102028596785462,-2.6846644315200519,0.32618600370993212,2.2947247619195967,0.98256696086628836,0.36477875406052557,-0.020756695904409945,1.0551652056053598,-0.25236169939816877,0.25577289539529929,0.79846462783458783,0.15778871304683081,0.51078107411866913,0.009123300092830992,0.39322692483954375,-0.78930388631336801,0.33460015277099581,0.20307876788931062,-0.48990984978798208,1.6041045753808818,0.39666427413963806,-0.44796411625712756,0.3593700598097147,-0.0091466476547863197,-2.3724486798480267,2.3894291720016634,-1.5488450529255733,-1.1252328547711397,-0.81896064854445838,-0.95482825450553788,-1.2869477166486583,0.35500645518012314,0.47804088200957096,0.88691502743700534,-0.21820340058840415,-0.72043555686938243,1.3491832521900322,0.64120195696272519,-2.7843944737312198,-1.1880385668435489,0.30799323289711017,-0.18046911041454911,0.071686363224246111,-0.76832576028878696,0.20686115786175341,-0.85332066844504284,-1.6081617377281905,0.241157822561128,0.58540778081753919,-1.3784342176873041,-0.57174125695899858,-0.57570353556491416,0.14288433044712365,-1.1599423831339866,-0.33728016800514038,-0.54604228571785618,-1.7302951198064773,2.0490805819489717,0.58194057999864091,-0.87776855466151071,-0.85394182109503369,0.4887041662288002,1.2671648308634731,-0.9948901329845663,-1.6680738669102593,1.5701352203134842,2.3218121473991076,-0.5857328951955012,0.28983258480197671,-1.3793271052423406,0.22968194026854782,0.65102501840055771,-0.54517508824696415,1.3325106500728148,-0.85426026421171852,0.36421024236330668,-1.2781888775654733,2.4682161280509187,-0.047709352576096556,0.056390920343894077,-0.055159175475762878,1.3693186410519973,-0.9069042893652377,0.80756991312363458,0.93946854494778409,1.3864642448518001,0.42785276468037575,2.354281905429469,0.10172942232432577,0.1881366795328972,0.90537700150345823,1.6465958959149014,0.50647420330450632,0.87417588292955051,1.9224205821074256,2.0627832113352422,0.43951479692274115,-1.444859923142034,-2.1648478751351465,-0.91680001769808284,-0.37229249785098834,-0.65423599322797821,1.0638030988122624,1.0071219347679543,-0.33001503126316706,-0.046204608608425714,-1.5812573439328041,-1.7372258385508581,0.32750751401147427,-0.085382481668508814,0.41415700573380926,0.0097155056790879258,-1.2815386516259273,1.1775778697606096,-0.38801278849390458,-0.66866111756863089,-0.21346607085195513,-0.18712360340867443,0.84155613584238764,1.2286061916908428,-0.88871222146844031,2.3192236654351182,-0.73947203973004338,-0.2560103604171019,0.81464642100955342,-0.0088170106779911304,-0.39107643522071733,-0.15092169145656983,0.40871256337992568,0.41541357937850154,-0.31321960733753729,-0.59036489705022288,-1.0495622388035259,0.22808649223263722,-1.6289446492418174,-1.972805180915703,-0.011655518747928336,-1.1675702091702453,-0.030095441443604935,0.99554959929791986,-2.4199789301613981,-1.177630651669618,-2.6317990571071554,-0.39758708857130448,0.42397225753633994,-0.045053776197795672,0.3542649585261306,-0.42386798409674492,0.9938002117440683,-0.64964420213675311,-0.11441782744204286,-0.18570598563562782,-0.98779566468778846,0.88643712230001759,0.86512304665979345,0.32951177152796662,0.48314849117453079,-0.6781439218509161,-1.5573000195171904,-0.055644238860579218,1.7488703382558159,-1.124040971237517,-1.6929741511343428,-0.50321195022470366,-0.7975479464393106,-0.37852242428722849,1.6489866875453392,0.14825229796145939,0.19672897851014057,-0.90218921344641145,0.61478344012684283,1.3988967320346599,-0.32751213480361036,0.18086538535777907,-0.17603260027988143,0.68343415277849351,-0.62939317906252279,-0.58388058276112509,-0.38430620360795242,-0.99599986390257511,1.5607341290574606,1.5213384576967079,0.37470641435297541,-0.050556737371044068,-0.1717345627638652,0.6020749303393238,0.88351539002478452,1.0410559594804845,0.17747024767974381,1.525556969422075,0.84709560953148855,1.507293302703129,-0.45405431972445631,-1.3172559311899452,-1.2696255014204449,0.57570738322127146,1.573709059007516,0.53645642869749099,-0.17370948701199637,0.69874945750217554,-0.87020403699452809,-1.6777153143578429,-1.5770600928242711,0.25640261493517763,-0.26734560720372746,0.71516490201719585,0.25645742096933799,0.43511538721134274,2.3287501459354778,-0.59791771208218114,0.92951027520937113,-0.98753796894821899,0.049223076043313163,1.4588599436665133,-1.1053393467861485,0.78276396636791024,2.5004360884687906,2.0775252205386714,-1.8763765123233513,1.2442636748263334,-1.3425041989920359,-1.3208060807770408,-0.86576398916835406,-1.1934789289851109,-1.5091094927830342,-0.24172527523671039,1.0214643807072157,-0.38218685609857911,-1.5621764571519066,0.68400493322956524,0.731855095513675,-0.83303062161840513,-1.1262492912368047,-0.30257496377935555,0.37109267346054786,-0.060226231768872131,-0.28527946553638739,0.74603630266306498,2.2261835041458231
-0.18134861792099624,0.37852081615709465,-0.42452533836474698,-0.65015349892675722,-1.015831395025941,0.43909645793567059,-1.9108946952810224,-0.76838642449423988,0.30419011846928928,1.281202031939457,0.85385958623875324,-1.9612529605396303,-0.25902759279195187,0.89855440540169207,0.027953794659893037,0.71112778748448924,-1.3172775502061194,0.31327824174868241,-0.024801465175881977,1.0495907405776208,-0.46163062067254718,1.5113321889946585,0.99686212199948088,0.25751479962645341,-0.99303133325300663,0.25405153046696344,0.15989094274607218,0.46739409717207175,-2.6747982132248218,2.1828424799077917,0.15521014230159433,-1.7672702275571577,1.5850188428350414,-0.80185904087092263,0.28797902608722126,-1.7183125012326608,0.31109608562881419,-0.54543303541107069,-0.015880427530429765,-1.4014666233929995,0.38006420970512489,-0.4403387856637348,-1.4938866086117957,0.42313717946526225,-0.44416503227651344,-0.28170614640842656,-0.17482591567201752,-1.095686281277187,-1.7290428897631005,-0.40622907068611774,1.0699030638125442,-0.0030196664575187311,-0.59127393749394064,0.4059208461441226,0.25600265442991599,1.1096221206236372,0.046261941261410776,-1.1631475097647852,0.91932243268970526,0.76047396192482952,0.99595685237766041,0.57455503277860931,-0.76661014078655154,-2.1931028168497129,-0.4434463607849275,0.1626196530667329,1.1278332258442938,-0.94956086013952978,0.25643187549976193,0.10934443849613831,-1.6156137650639009,-0.4138832012824199,-0.80993098624011306,0.9109418174261561,0.61533212794013314,-0.22212820343335093,0.51005852932685469,0.20718789332963802,-1.4381809168822899,-1.1469157808694013,-0.69766675826980173,-0.24273650911688904,-1.7409480459636399,0.95585207476682654,-0.98597843979921862,-1.0650081631890993,1.3436403934156329,0.76296377296754636,-0.16978311237240054,0.36424742635963342,0.39567820771642326,1.1574839672550592,0.59945457248103673,-1.3464652919618518,-0.70174553671854822,-0.16418024777385418,0.15933408516355727,-0.54583332282654029,0.62331034121582951,-0.53263953295061417,-0.72844387370321917,-0.89133087717574044,0.79470796711359659,1.6534457182660476,-2.0222379983756911,-0.87542528000470132,0.31081290527791783,-0.39105698933352528,1.1347130432400638,-0.12589570334624814,-0.38265363403094693,2.366097164502742,1.9125382211783333,-1.0952723362845205,0.94167320908814023,-0.092129346777562918,-0.32815678231300138,-0.16900660265301617,1.2445658650092331,0.79466382087105925,-0.18747272755378339,-0.98478724836815379,0.98704850177034786,1.3146629810671493,-0.4137914807949174,0.96422983245720151,1.0327401173429227,1.5032172604216736,-0.21812109423589196,-0.17578306500548302,2.0314825536054388,1.7791472428060919,1.53741766589316,-0.39884303555544443,1.5514577278504338,0.7760466478765915,-0.7586536290883279,0.17907838085911659,-1.5848890142497389,-1.1092564482694109,-0.84066047715799652,-0.39220287039505081,-0.36110465252032514,-0.18063397932081635,1.5935845270976265,2.0079966592398764,-0.32180712774604175,-1.6680279598903025,-1.1754506656385115,-0.43806920346760236,0.22503683742105149,-0.55339964388188656,-0.030147899616036214,3.1141373375070942,-0.12260804823696599,-0.042955120619692394,-1.2650433650459787,0.67002542295719725,-1.3941874894696751,0.41247222511372877,1.0081986950139723,-0.053049963448629403,0.12088803762632193,1.2472419535577235,1.0197140373296272,-0.86342092613601285,0.18152065822846414,-0.59033253789905915,-0.32528219541768261,1.795856361881254,0.43444996034315775,-2.0705343947563239,0.16119659800127045,-0.10515034733645751,1.6706138168713081,-0.77289340152568986,-0.60726371467746443,-0.09386199148519915,0.26235524565314072,-2.639132192935433,-0.37621079045802341,-0.50045553608368298,-1.0087630542485446,-0.57150665680129487,0.58434223152458364,-0.53305718948013803,1.7591385521680805,1.514869134677622,2.2589720933322135,0.9434083321498733,0.052156704229896614,0.84509120305046104,-0.16435590620910684,0.14552727842024604,-1.0285122381232654,-0.315519689327386,-1.2051205553947459,0.57410380083241752,0.073541314903463453,-1.7533624296183443,-0.76310819223376913,0.034753500330861664,-0.87577722572462469,-0.94961053237305282,-0.57077975851844898,1.1898208849499519,-1.1668463571991359,-1.1050962361978192,-0.58961199970826161,0.27288120950031053,-0.12258112105569391,0.90043045837031954,1.0950090563849648,-0.34157828141589086,-0.83290146756784922,-0.38847687132475828,-0.10298326171551123,-1.2635766406807158,0.74963856189148426,-2.060847345300024,1.6796318659263916,-0.78502550034091345,0.43505686211356193,0.31114836223951964,-0.21185724546469134,-0.27284094813100018,-0.21192243605288746,-0.67292714271510012,0.39854984739080151,1.9523888313840898,0.058606882671874992,-0.012790878161582499,1.7329873312521682,0.95369860472969548,0.42903252266143194,-1.6959429136218684,-0.82882741358577849,0.93155830537911455,-0.34319780099826314,-0.47878952401213304,-0.34763429573610027,-0.75528647845675856,0.30996697767683667,0.79198900966830743,0.59985343137140379,-1.1738894535044069,-0.44340916835374511,-0.00369881686831122,-0.46875583809100407,-0.65491840531453305,0.67182165739083166,-0.47107175896025572,1.1889017428594011,2.714264403808814,0.26584439368105717,-0.26941224398341279,-0.24779691491993158,0.21188801148817357,-0.54368180552345158,1.0551884084866523,-1.4880537933521634,0.14538441602146768,0.64513167376676928,-0.2324907365007671,1.5037542073334977,0.037540718675181703,0.055555520201658791,1.7238477895791189,-0.22109050263393595,1.1063480475764289,1.6842539965129495,-0.38885555604814548,-1.615953350766022,-0.20132109316274921,0.96187185739550896,0.038759774892331088,0.1241408697239095,0.22793304611431567,0.063134373057031609,-1.8710369842139838,-0.2392899660703468,-1.2072917472867677,-1.4682646860225657,-0.54269792415067575,-0.73332349278476316,3.0178247120925032,0.40108100101170108,-0.5488148803598708,-1.8311114709626797,-0.30644746881510643,0.95983455627445891,0.3518296339628792,-0.41235757020711594,0.015713703222175593,0.6453478765973838,1.3894003740224161,-0.60275260351206106,1.3244006305993343,-1.6849578074161409,1.9715144118705654,-0.7716553728168325,-0.44691529847959266,-1.1698043531366245,0.28353458871605092,-1.0627359528551286,-1.0948938939652519,-0.10179994697274025,-1.9768707604488054,0.15191340777882817,1.2232392299388877,0.67009630525673058,1.3203445933313047,-0.59686078517368502,0.83666348622779185,0.46389106148426656,-0.14969095255740589,-0.82150176119728879,0.43038380448464175,-1.4437112698699528,-0.88753899847178319,0.67065164184662884,-1.5268075640080252,-0.30362319263425597,0.31909098799793006,0.7969947175221167,0.40989451044825748,-0.77525983590937386,-1.3245032242338284,0.33857647670793689,-1.1825816098037587,-0.8096409186967447,0.25605394083263905,1.3220143112590039,-0.59827219862986403,-0.27190364611900503,-2.2004799555463541,-0.54680347485654102,0.9274453442470787,-0.40637452126043083,0.65215556542711539,-0.38547778789050108,-0.18816092261342657,-0.68479266604379507,-0.84759695803802637,-0.037980146948068859,0.57649163633429412,-0.054522885291935566,1.6738945929967013,1.4892977288608398,-2.204424269325143,0.11432695361918914,1.1181741250078567,-0.96213514881205153,-0.059269168448651675,0.39059267969590128,-1.2916859547057498,-0.82520142871325286,0.57554628572584288,-1.4434995904336694,-0.099193637155500308,-0.81750767644256073,-0.61598880957580593,1.0202289106290992,-1.4039323798363097,-0.17816760084952218,1.3757111962872799,-0.47159860343722099,-0.30079628136368647,0.54564212351914609,-1.3307652861595216,0.63128027375458506,0.7862069114181095,-0.091168793164994211,-1.1307267349770393,-1.4951265626168286,0.69514233716553775,0.34524385033338545,-0.61304129559986142,0.31665887489149541,0.9919074661212115,2.2526894017429226,0.43744167800204703,-0.02609950801938183,-0.38738321978148305,0.682115250570271,1.2946144141062685,0.80428262810853479,1.2360628288583972,1.0614824197654984,-1.1689015358954584,0.66576692656568914,-1.668638639234292,-0.81631108929843799,1.4025870368852729,-1.5743472308820463,-0.30179923005800641,-0.40565641302997402,0.32178143037664042,0.47842967253296381,1.2777519094968957,0.37954723310755478,0.40828402502386918,-0.71784839473894058,-0.82834937683815857,0.22750660603344566,0.90744902590290799,-0.26783484387134321,-0.66037597834276274,0.70677751072144723,0.016574737093956012,2.150836343199936,-1.2467012057045344,-1.0874523998395218,-1.1615778462815294,0.25278125825959313,-1.2579045805974571,0.18375330078035571,1.1310786941412256,0.73815006824829121,-1.2087148469864053,1.3985489207661943,1.2613404995491537,0.96068998611911294,1.0895039812606135,0.20118753368053022,1.4007241810984064,0.54496472765424919,-1.8750098774373374,0.82133694828258885,-0.4519514763157424,0.26124867028242366,-0.19217298999702795,-1.354207992675482,-2.1428577168151945,0.22683668595829259,0.77661880157780738,1.3933565541806194,0.28891719953211825,-0.46485926570110364,0.32430297487553811,-0.083227531663595367,-0.62795320893024553,0.56808236578742899,0.83172574867707272,-0.10616190775530905,0.57602496699073813,-0.55407396346594018,0.40683040283857125,-0.46846209601836908,-0.083676750720891396,0.21740981146765101,-0.69351996064503152,1.9088498755367433,-0.85948820216237787,-1.6303526791960516,-0.11968238984971442,0.97361108069571234,1.1657617699958822,0.90835179190255588,-0.04118617006520018,0.71036526648443121,-0.93616139749281613,-0.074063010757056846,-0.42017779566610858,1.2695176224004701,-1.0309796163111784,0.2769271579218846,-0.14845358542399759,-0.3325785359196104,0.32584529957092101,0.39240759711852774,0.28050667672097973,0.83588632109819405,0.17882590123250561,-0.10535012839521465,-0.32192642929939147,-0.19042424717259659,-1.4599288496551182,0.79761673529189137,0.57852325548976802,-0.078412879404930622,-0.13789985342488115,-0.13132144535644094,0.95307221117808649,-1.1392837763727153,-1.5036127960811181,0.16224954408951789,-2.4600687575560225,1.4150622385109697,0.043264180506704039,-0.46749423586981487,0.30094186123758448,1.0194519501254795,1.8272481570664054,0.2020142006333627,-0.77832879935389376,1.6493844270622988,0.12308217293314479,0.31703172834241955,-0.45846239183095661
-1.8531904577288176,1.1075632718028441,0.29314693271768028,-0.29455686401926501,1.0626276758304154,-0.97484900278285569,-0.46199992463497258,-0.084853682923925838,0.25639020642500954,-0.27260184043287983,-0.36798130582085037,-0.50186295701648032,-1.3796672769796208,0.83621184930566983,1.0674641805314748,0.75609347110857894,-1.2638425477743511,1.9885256213194564,0.076076277425214056,1.8432836336651806,-1.953254450260308,-0.17805347825096202,1.0698747113657507,-0.22196027083865311,0.39167783735321648,1.6199062837286011,-1.2305831200646546,-0.59144465711027117,0.77497938832165958,-1.0808689556855704,0.19007788396850708,-1.4480675164291672,-0.9563439145013749,0.77848520253872466,-0.50867867595844252,-1.2711118542372508,-1.6656697354504995,0.87431924043788389,1.3536558999072159,0.21871137832724613,1.1512164565219256,1.179097062053629,-0.60558423656692151,-1.0512063831257712,-0.71478858215410457,-1.4616757131741285,0.57442911549935649,0.35962163678523257,-0.35666866892149712,-1.2473741690653171,0.49959131736676604,1.3266516506045543,2.0989042678032512,-0.94071387974674581,0.14796593087959561,-1.0682411304730794,0.14719688484024096,1.6746781451743076,1.1728503078822499,1.4652144606051802,-0.21986836455518097,-1.0776870738769444,-1.6272527413784941,-2.1969118875077913,-1.9703173256812383,0.42866225916782486,1.2336100685103706,-1.5842058730850026,-1.8914599738722295,-0.25781211943230503,0.65610470376057484,0.88199903629149423,1.3225056930308055,0.094861012979020623,-0.89796623398447351,-0.11405208737446439,0.97213609242893795,-0.16686797058512379,-0.93451592730203659,0.83591275295939182,-0.67573963000403692,-0.15374344858180633,1.0956871679080413,-1.3522989728840267,-1.2516901306845047,0.86282988260987381,-0.35180242508364318,0.17923603793172185,-1.1054290437351439,0.27823598908039465,-0.10531383939041253,-0.85624510685230371,0.32196166621578431,-1.4293281013403185,-0.7202945491304894,-0.0072465083545723737,0.046865946937632463,0.87902323479089983,-0.97945099334502117,-0.5120510313177693,1.3889611206114705,-0.20295193363273198,2.5089858910546901,0.30273103565835086,-0.77818876598265174,-0.46685492450728067,-1.8582862079862108,-0.66509592445212329,-0.25381186413735263,0.69981439717143523,-1.4645030924286671,0.50963756159985252,1.2039128498457989,1.3795920267761121,-1.814521323623246,0.58308907609568617,0.090009144770097471,-0.90488493007514059,-1.057064103682557,0.23325461572153777,-0.65844954428202762,0.51501470355372159,1.6335626047303078,-0.54469256764259444,-0.81557577997018771,-0.88130247457496103,0.4881999042472,-0.48344744381389942,0.15146524284583412,1.0606516603252081,-1.2327009920014633,-0.89844232800192791,-0.38974491061027933,1.7677075030531109,1.4584604196852367,-1.5508300587696449,1.0526093062830522,1.2513094819379003,0.085869765984611088,-1.7940884286700509,-0.65352912526808671,-0.83407625428333143,0.34489258505842008,-0.92538947563397056,1.3405110600666263,-0.2254198075729118,0.037792983615874264,0.53218177379327103,0.22875830298535479,-0.62615639896913911,-0.21475070965739318,-0.79722200001205012,1.5985100356071156,-1.1767385989644847,-0.63809184927543272,0.76098142862380569,-0.17046587422760362,-0.6831278072910828,-0.59719163982648105,1.8140119411719409,0.2188637770866961,0.76137541652944896,1.1057134136949458,-0.99331364626404617,0.018496239528211306,2.1976426159560827,-0.90071901338962124,0.17718935535131203,1.1094393413861887,1.2334600327034531,-1.3352039509024629,1.0218962674324652,-1.4639703232943626,0.79668264116524867,-0.091525829770285103,-0.8508731688158776,0.44424724014657152,0.6298268557326,0.26229983876441654,-0.35012540921939017,0.95401242546340081,-1.6170796019037503,1.4149386864314109,-0.80810406916792477,0.55075693656436242,0.17612923191649568,-0.53302326277962497,1.2061135034604809,1.0485059333790843,1.4569315709347588,0.93285586703033574,0.75302743719132548,-0.6844231690539796,1.6291669308511547,-0.68948131204082197,0.472127354499356,1.594284623793091,0.20842611400175995,0.24534014633406823,-0.31162853887875641,0.80463063237942778,0.76892989330728934,1.8565611568503904,1.3030045136266817,-0.65579129169745931,0.81691804616659613,-0.8960782810237079,-0.21598378087096956,0.52926180789535116,-0.98284396181873135,-0.38974996195032557,-1.4247813736404498,0.43337474912730312,2.3123820703100795,0.34406475528862279,-0.66507186799988194,-1.1033191956427328,0.36285983211014439,-1.3412922621789261,0.90437261366746668,1.8104432240992985,-0.92490203320960584,0.3441144463510622,-1.3038320657280034,-1.2193647038908404,0.041121616009971905,-0.2554433532718014,0.061346595887413209,-0.49112149697218033,-1.7088671454550395,0.14746385234913506,1.3610377610994062,-0.31131111209532802,-0.67583668415723774,0.42153760413043923,-0.29537193010153284,-0.0030656312269645085,-1.7423793845182587,-0.98534304460662281,0.30941711069419714,0.60738973842981558,0.951134460974707,0.46464801259535748,-1.176064038770646,0.51226653002419509,0.64970425348369543,-1.4486513847028766,1.5283150562602894,0.86222626636100286,-0.5982726594728961,-0.5754894021063911,-1.6431057335344652,-2.0936927438376816,0.58860363944170613,0.78795252181617315,-0.3471577013091231,-0.54907719664597632,-0.71528404601338225,0.15661837025757963,0.18007652007402772,-0.58674029921370652,-0.4110772441542091,-0.40537538207069834,-0.27220722600407954,-1.0108671111708154,-2.5593180186150519,1.7448734066102569,-0.90178738623705146,1.4148860631146647,-0.2403805831878903,-0.90235618888626834,0.24681400792614167,1.8084103197496171,0.82023544228074508,0.38063644212265224,-0.14056659958608855,-0.65908917183501059,-0.08539692530321949,0.3455944095667986,1.0385343984203943,-1.026431767130132,-2.276612371579565,0.0085527710968678027,-0.81653025806673174,0.066092466588466792,0.32311488458122389,-1.5558310475760169,-0.88371228246914535,-0.21739241894003233,0.48954115180261154,-1.7118866502392178,-1.8874204935659238,1.8276345302011185,-0.74855099981193418,-0.49704031521386055,1.4490859949472543,0.61356952243304841,2.2434606108273636,0.22306769568556195,0.74410221632895901,-0.29219886968021208,0.2065954029345492,1.6735021257974336,-0.73982416786301652,-1.326380380851627,2.142096772408586,-1.6109115934982376,-0.96719212615593031,-0.72636759180599175,-1.1254544640024364,1.7105688558601477,-1.2646837162258393,0.03838035277131497,1.3431620469641965,-0.64349446347954198,0.58604341654495939,1.148531313728272,1.4788174899709579,0.23544812427630421,-1.1427093069096912,1.9985969045609566,-1.1030382436368391,0.37812707051561001,-1.6457987585777698,0.35200720820241715,2.5156616198474437,-0.96776130872651067,0.18598910065970209,-1.4392578397012246,0.093909413113171122,-0.86172466627053967,-1.2314854140085809,0.62433007234836724,0.20240614167360257,-0.49535922065930588,0.41289761447759221,0.64477626034887281,-0.48499565696821445,-1.6792075573458216,-0.099738051260589961,0.11127754502571029,0.034200911392754461,-1.1098545698015931,1.3722021759512071,0.057745271213812503,1.0184269612520325,0.50649072626797564,-0.34195836544546704,-0.36160164837121667,0.059379614384955239,-0.46707346865761495,0.86490061869212731,0.48503252098633326,1.0114912049851046,-0.82456607110920843,1.2962336955954883,0.88067909916080755,1.6191555867925229,0.83955767667663672,-0.21757859375276428,0.25196556759891692,-0.95386502758208824,0.045186531876988976,0.73211275409726984,-0.44236276783324319,0.42435287036245928,-1.3555238636739921,0.49793858621652226,-1.2808214463346641,-0.95295242044936013,0.56887569679093564,-1.0375289826812861,0.41071961324782785,0.96411645961854897,0.95982230662802104,1.6998750216937943,-1.7231594056445629,-1.8844081642820274,1.0500493546352925,1.2926301173118828,0.55996249644667639,0.41503387319279134,-0.14577034953271342,-1.1686015403825825,-0.67955413920659624,-0.59060785555028195,-0.34165582170312397,0.55946840811570142,-0.84328722907739651,0.3758836668776156,0.026017374835221273,1.8532467604441007,-0.69017625587417408,-0.62198750888952836,1.8550722096591059,1.4763132158648324,0.88462920714305249,1.0466683424847945,1.0424607461969335,0.19061367138674543,0.2326712087056077,0.52926609779702838,1.4720569878126737,-1.8688215908584367,1.6154905971898934,0.1848092157077644,0.078871520740599957,-0.15517656574408048,0.8806460749712155,-1.6450025399321444,1.4892099486198327,0.53147549879360112,-0.28801096163927892,-1.7142925080286338,0.39643767006715108,-0.78895179251387271,0.11124391631781638,0.049274247879199984,-1.9686041042802187,0.48398211147580172,0.076548334319870695,-0.4196402231748082,0.55862320361553852,0.21838055226035519,-0.51049991940097106,-0.045001536156781291,-0.95273056097979192,-1.3942669034313591,0.30061956778213161,-1.348357368179095,-0.052391744523455339,-0.74096119052124509,-0.16162885067062832,-0.5446874624348198,0.20112398475550267,1.3030496899353685,-0.98608643069846713,0.39617253781709982,-1.4047067796961423,0.073357462329910111,-0.67227348451807944,0.57851800670882469,-0.31996154794286485,1.0414989129548546,0.71934684039555064,-1.6919903857873086,0.31052355731996267,0.49958582432611753,-2.1307595572076159,0.20076668018547159,-0.070365946516876762,-0.95636450273396745,-0.56041472368137124,-0.79211463207561739,0.011718048256009016,-1.6800064553194305,0.66594583314649758,-1.2840155111606908,-0.95375504167663427,-0.22889153363652939,1.1611049278430032,-1.5154623909172391,1.1056519305679864,0.070362311021814755,0.047855260644172566,0.10094366986481622,0.32258969521841774,1.753233090813479,-1.1620074024807825,0.004729282153071987,0.31117335190040607,1.3451284791825424,-0.65874343538810887,0.031282174006151436,1.2876545301390219,0.012443283526806081,1.3670668483010409,-0.090808400117349294,0.3515606099354493,-3.3223082676935665,1.8866886048633063,1.0691342266001957,1.1048040442461653,-1.0007322498054356,-0.92710718885964361,1.2299517854983235,1.0680775144315013,0.10258709574393349,0.7120035585480361,-1.9280935558461714,-1.3402973426463238,0.76471596247516072,1.8208227216716877,1.7229123520798573,0.37516082033447157,0.57451437752372136,2.2053382871582428,-1.3108973133684685,1.0754705563687224,0.13787759190382717
0.76444255616495538,0.37609033127343006,-2.2069207984280372,0.31584200126637862,-0.16183448891520147,0.14663518120041608,-1.189738462028233,-0.74142849915274733,1.0076037436038097,0.98635570538391515,-0.13798938986067283,0.14591138233944254,0.55139955700876109,-0.5635677844603727,-0.17337735417369024,1.403929835435656,-0.80984603432179603,1.1340409895021668,-0.2891470071235373,0.048584314557915766,0.072391817681518034,0.31620657869201579,1.4931267315697541,1.3653068924037495,0.31024472732761937,0.42190291163479521,-0.81739306501048414,0.49005063613547856,1.6832346896627091,0.32565055098097712,0.33686407160634108,0.46764870296089922,-0.59702948903513842,0.88709392693707045,0.74399083987078618,-0.92821102013423595,-0.5537804456363985,0.46160607861277819,0.78988367264375092,0.47672508828403543,-0.035384339411227844,-0.81387759242916946,-0.87003790174365514,1.4212744321784148,0.71977501820990542,0.33880586183307759,0.21398248820570751,0.62976007757049457,0.38900361830636199,-0.16628149951430243,-0.78447859056854163,0.24534034189020038,1.4696538891814386,-0.059624034881108089,-0.35483755870084366,0.74708465631727206,-1.3044349161852493,1.0470796393726218,-0.26299091161764016,-0.36956603205218669,-0.27065650889217718,1.1693640991447094,-0.59851065775545331,-0.34055957825955907,0.68588789145247053,1.4481993891258917,-0.23744742251759776,0.066890522578342118,0.10245671820862755,0.62259748750332755,0.28300344520932647,0.13281433843082988,-0.18324832009574779,0.82186007154296781,-1.2645051771831648,0.20450881391396764,0.4766546338758903,0.068049495150030961,-0.97091625304752605,-0.38999665904902714,-1.6613484385375412,-2.4882503904867179,0.52333130666432193,0.39989011899840748,-0.68886637671275197,0.32921328942565975,0.30812748390896272,1.0854318747801686,-0.71101000799352621,-0.56172503120993067,-0.42918115015790115,-0.59307197922535015,-0.38609905812012779,0.82848902469579055,1.6034477024694136,0.27850565377740388,0.44405065660700926,0.0047417542314434312,-2.3062060821351533,-1.3041780383443036,1.191137537881686,-0.53521637538220024,-0.1402698802848551,-1.0037884128347487,0.42662612249730075,-0.19329554781640737,-1.4483272381399546,0.38850850746800036,0.2685916214030088,-0.053877698158394223,1.1914651288973199,-0.2887664347377164,-1.0200134080833441,-0.061906617950323969,0.15597977427546295,0.82257957805019222,0.098512012099369134,-0.74123726535749379,0.26731547560115326,0.7703505777937435,-1.5689117879346512,-0.92230437251652875,-0.62251567927422669,-0.1406834653048846,-0.30625740122432443,-0.19799066322824646,-0.055639980042887442,-0.17322792294763201,1.2353483328572228,0.40591676363491297,0.56383845510223707,0.82288594413389637,-0.98434576710233712,-0.96113173467956903,-0.14443369136864517,-0.53381605437372126,-0.2642631053266109,-0.72548538512621619,-2.9038983261016296,0.6922515729979305,-0.65200370861422696,-0.73926219417221273,0.4197810222670556,-0.86194415244321887,0.46835034770258749,0.079579703379399222,-0.91239702070711637,2.2685779078333272,-0.61305912235609161,-0.2474018166913049,-0.036982114876934861,-2.0968135749131274,-2.2757846986483341,-0.84275602419959295,-0.54615542750608093,-0.49944894347584934,0.87438307338522281,-0.19215910040390219,0.92430464296268633,0.36086005342344185,0.34209616345356186,0.28350186564980662,-0.1570053736276604,-1.1184481790691287,0.55102489276901911,2.014276566310742,-0.28705822653244367,0.024556734013504049,2.5452783417418257,-0.9677090679412349,-0.62656767310222017,0.82928923121581999,-0.68286210475471032,0.67640907646386672,-0.64956057459564476,0.66611508799817931,-0.56996824008639002,0.55341795920192083,0.036642145277128488,1.4942187053549267,1.4044668830588083,-0.3316993500896655,0.64440729358123316,-0.069585001371680805,1.0054843927763704,-0.33430233503213919,0.23026392419806976,-0.13184619809857873,0.70964250408543506,0.46612482099777069,0.80440909274077288,-0.081201306227718817,-2.1362713390162171,1.8508293731558321,-1.3416929958286474,0.40096859765373705,-0.35690986463390034,0.8989920802342084,-0.4394955290879457,-1.2337181699786788,-0.66670610933190755,1.3362751416224299,0.80592094470153619,-1.1481836324584522,0.51514666116587837,1.86678961796262,-0.54240788811353402,0.91348945186327291,-0.61824200706604471,0.62446624840560416,0.61469080032974488,-0.92787392383250444,-0.61195966624860243,0.37758174832038582,0.20502145411172903,-0.038189982642269402,0.82399522474110765,0.39640657019206127,-0.50039351927927123,-0.42493988770335561,-2.0484061058651548,0.45780494044881365,0.18723622400350573,1.1344018929963176,-0.040899832144074111,0.60374258062340191,-1.4153425426770756,1.1868339452424268,1.120210020147095,-0.67281002154915448,-0.14114278828877141,-1.208825938388794,1.3578011935257814,-1.093436491942815,-0.55855409272283385,0.26847838340446101,-0.28991697658632487,-0.69102039263562609,-0.26035883142196364,-1.0956902730569305,2.332644652824976,0.92207620691600023,-0.17832677609414002,-0.12499896405433382,0.61505602061630771,-0.78976406054980575,0.014766404840973333,-1.3756632243320175,-1.3886951447068399,-0.13957120761153971,0.10608558091815332,-0.6698051832169224,-0.36537787358788471,1.4533808436205635,2.2935142626364651,0.65234824861084506,1.5095337887428317,0.97732600862019292,-0.59751071041641723,0.53818545342735069,-1.4274307724687727,0.62964922767491915,-0.14385518702934227,-0.88261526766244414,0.85034473124885901,-0.3333195271563888,-1.3342406306608088,0.32302466947306691,1.6283047735398748,0.35085745921166389,0.10641945210431057,0.26145106962917541,-0.77874063226562595,0.10005603193425212,-0.71885403079646382,-0.67717162317665447,-0.095114549085864308,-0.33822809761425926,-1.7962599342863499,-1.1792837255373581,-0.44907149500687499,-0.40262880032603948,-2.3976015465019884,-0.13442807594126205,0.17950054301563848,0.056736597489971799,-1.0681617971162414,1.2396682104034897,-0.068345954123766373,-1.1083806063954678,0.82944875905090687,0.2939159574123319,0.28079934828394126,-0.3152408710032038,-0.54001999856835914,-0.27345921909334092,-0.085237372770151698,-0.31061642483977525,0.84372027787201631,1.8897375269772057,0.58555128067646478,-0.80424163808696925,-1.8871135456820314,1.8083813299315123,-2.1740904551595714,-0.25349730102020451,0.2170046928620559,0.42519190922522648,0.70335756473992306,-0.6097993933594088,-0.16409751384039117,0.19022516008262016,-0.6080327696418365,-0.59849354059124615,-0.31042714773183672,-0.5894089967607542,1.1660397933807056,-0.7427714128886459,-0.45208024008025754,-0.41509664166648813,0.40297377111518357,0.95667609119290498,0.32524457848120075,0.5760677703658631,0.010818162137391736,-0.40659573548914496,0.16012034311542248,1.0759356721695632,-1.3722093626687741,-0.30032284791149555,-0.62474250606109194,-0.84507980722106257,0.1906479736526778,1.5499695419817272,-1.1417296556913827,-3.0913363795323714,0.51330928216030025,0.47118721478229592,-0.58281267168033668,-0.835341758267381,1.0944892335721323,0.41721403765513598,-2.8901682551801664,0.93356134666711876,-1.6057570616493342,0.91662535361593855,-0.32199358107373072,1.0266984268354424,0.10432096539033185,0.199997452375028,-0.057364932396801474,-0.3921461345359899,0.0062695164733478775,0.71102304822831863,0.20578724574538232,0.83870171768990431,0.16322476978177369,0.81391258072265882,0.76513660323353039,0.99104614085097431,-1.2397393008884847,1.6505120640829543,-0.92291420551001524,0.64379626597759609,0.087450934188152682,-0.71951987395080519,1.4576853735004602,0.74293081846535403,0.99695999929876056,-0.86463557031578619,0.84882795394155397,-0.50941865751363291,0.0293741844175722,-0.61286176853449725,0.16620701611025684,-0.27000980286510057,-1.0517476018056597,-0.45652604114370937,-0.55746319139934208,0.28002034395905834,0.048407443970358156,0.40980463902178871,-1.7319435807023138,0.53534366514377885,-1.7257135787372173,-2.1755254973525879,-0.49030990072394232,1.180928468928603,0.04104571386778974,-0.99446666191622191,-0.54529997037867994,-0.47323129755590032,0.77026608352376624,0.21643191212829416,0.55767489648405466,0.77087688402813304,0.0027431882173287571,-1.3311214580663553,-0.50731489421269127,-0.39690226965030834,-2.1791164769957807,0.16500790310659208,1.3463905934861928,-0.14221159149099014,-1.2930638876699656,1.2198946817501624,-0.69119567025969353,-0.42592888859074129,-0.0656875893146939,-0.86273506490283358,-1.577137577834538,3.3119707676128489,-2.1701687872371171,-0.85444605956799924,-0.24209867225871393,-0.75749640035363686,-0.094112184775091728,-0.79780414308852032,1.3511592917775463,-0.83928174128937849,-0.90322528779460909,-0.70534331656663829,-0.90692066456948894,0.037275258647551213,0.40736010033649889,2.0835975048576603,0.32526421215185036,0.99244634498104745,0.79964025759028057,1.0483623767459731,0.82331263462885407,0.76809293917147192,-0.73081272189962998,0.46409693512223449,-0.65955375904864078,0.81527621585890675,-1.739331946022044,-0.086008671254405228,-0.71971770887070685,-0.91103624716893394,-0.6310641766150199,-0.41654534728413295,0.0057736991529312685,1.0574519032115011,-1.2408208439671784,0.76059811212670969,-0.57221170268736332,0.93415183216759445,1.2254502603814732,-0.5996102424834211,-1.5157778983957115,-0.53098240605374625,-1.1556627159511885,0.72938590545272386,0.74191939603317503,2.0785767081501341,-1.4545854264353471,-0.40947473230577602,-1.2378227026751059,-1.3623944512414625,-0.45603379506954295,-0.36969846613848772,-0.012783164607204391,-0.063956462297411157,-0.68846885996032081,-1.9575147266661739,0.67365605792824979,0.15667489737022733,0.89658746245321119,0.6404164447435744,0.4419910990745356,0.18434561728191701,1.0439375650020555,-0.66283299861829226,0.36232704229340656,1.4974078407145299,-0.044086461534986229,-0.05167369442007478,0.61608237910263997,-1.4915760554534137,0.56391773681056345,-1.1298717646701886,1.0534964917289811,-0.07324257767766218,-1.1697732296985246,0.89399005317225011,-0.43637892758081498,2.5265079881009203,-0.17157075481782882,0.37945464181623162,0.80085184868104697,0.35537627317519765,0.28619311309416923,0.2832525559203955,-1.7570443915968812,-1.1696767053523014,-0.011963758907119733,1.069612373395028,-0.26550975325989479,0.25855866060816068
-0.83112638243749171,0.38626307028758178,0.85506078190702217,-1.1034540870042138,-0.5701943045232285,0.0090791192660358861,1.1935063237244061,0.3644254699228282,-1.4536912284504324,-0.55951114332884222,-0.40867711443864413,0.34114066404031768,0.10804286110172136,-0.087182431060119928,1.1761644142558239,-0.859112007883433,-0.9994395458605897,-0.8833436321746263,-0.572096104308223,1.1639664837723673,0.17816028328937789,-1.3503748857787821,-0.28320691368207912,1.3858864182797317,0.91451215294013899,-0.31904807610244285,1.0967889285445491,0.45475654762301343,-0.77201124804272914,1.2799220127094957,0.3371759877880508,-1.6486044352166918,0.54900568139697115,0.41244684212212573,-1.2510628389484313,-0.655842186576304,0.45171523064624874,-0.35833443667926984,0.27807762068990677,-3.1015955818952472,-0.51358279564024878,0.24042882508076679,0.37602273402693859,0.31216261078511404,-1.2587718241189638,-1.8457144807825672,-0.42113452025533316,0.24685874187148099,0.60018479164840866,-0.80634710292088174,1.6457024183219613,-0.22794529989555154,-1.4461105717135008,1.149394531694256,1.2449096860808104,0.82892922703452265,-1.8410970871334076,0.10427041261680205,0.43171463863975312,-0.11617848651356419,-0.11922403807987512,0.17855835543591023,0.69081494754345163,0.943083574747691,1.6591562549445709,1.0562607613095465,0.52333651444061025,-2.1627511917865987,0.85035222627475326,-1.045002596275912,0.3219840838411549,-0.22700672964789922,0.5040374164235577,0.77198199060704598,1.5930947076774156,0.36293365950436896,-0.69529787744191951,-0.8359454951768126,-1.1919749891873641,-0.78088461840281875,0.30804633579982449,-0.90062993845518269,0.63523607030438534,-0.7653824783928701,-0.25887741589352331,-1.0254363989267168,-1.3619947081823494,-1.0752900267185623,0.39001692373352892,0.56911867339504296,-0.33622904573770079,-0.3007211480770296,-1.6037807137904989,-1.4259720484464333,-1.0076768775161782,0.78734339561023159,1.732002365088761,0.10929058593908683,0.011996426166742888,0.30618660173094836,0.023307505656835457,-1.1064473873843035,-0.47057611341593031,0.2457372776758994,0.57856958003236025,1.0021013637182183,-0.36717395874326647,-0.33753117252867132,-0.19401189317947257,-0.23311356316858234,0.39381309601859066,-1.1762562526838638,-0.047279314707458477,-0.3392440830560991,-0.21194727930071272,-0.63972736922451867,0.23348365255930031,-2.0559990910309245,-0.28673212895595462,0.35501027296962251,0.82289239401539405,1.2378402122576861,-0.76805311673727117,-0.37983522505640288,1.1674772174090711,-1.9393923087833109,1.2899048878942285,-1.1877510559715925,-1.2528117496025835,0.58898103869267637,0.4705297694294483,-0.044807392769765482,-0.10411050954768943,0.74642973505827226,1.3689874553222376,0.93000046939456593,-0.81464360777217404,1.7613627328179717,0.90516765230696061,-0.63951422944980618,1.3809493133702297,-0.88113727019770349,-0.8153947026588354,-0.42641850655586599,1.0408278140914287,-0.44882121320506596,-1.4136589633984793,-1.6212991793131097,0.73851091763180465,-1.3357850518986887,-0.039139464097863987,0.33199239121041069,0.34431449133224939,-0.72829135390755739,0.8096306330213946,-0.72779533509921224,0.45759820822529801,-0.68755943303209965,0.8346671071920585,0.1461948159222235,1.4513511721557832,-0.58523432800059516,-0.10132546656536019,0.49391438481557864,-0.99826032186210611,-0.0195991833958555,-2.0098652643240276,-1.5220442685267872,1.3825829262922635,0.32788826922024716,0.94512893945904897,0.48126028943163285,-0.53714275933955302,1.25258877384711,-1.3580735945738582,0.32264661565963798,-0.9385494617198642,1.5131633264447997,0.11179717313811306,1.9299923105150285,0.70632218054203089,-1.9091158529851571,-1.0722683535671287,-0.11419878652276477,1.0982752956270907,-0.094888581431923635,-0.40294182947054585,0.32050257593087517,-1.2648696474755556,-0.060829623009321161,-0.52861108825130065,-1.0763732809172439,-0.79778122073217572,-0.085635714592957074,1.8600033665296511,0.82440435278707735,-2.3482756462885752,-0.12368136195803318,0.8853551129867453,-0.38492910982027123,-0.25421840045808547,0.84161484154364052,1.5201949978133387,-0.70556489679802747,0.93701418068045472,1.2366512579519009,0.72677083558471167,-0.76252041306686791,-0.17611344050071867,-1.4988482010648294,-0.84525985557553773,-0.7754174452442083,0.93978179926655714,-1.0303761809188381,-0.58578032952813752,0.80411499815960397,-1.9080528294773809,-1.124570074271255,-0.76224161804719559,-1.1240547105946554,-1.3556844972682061,2.5371211605013495,0.074532387108584397,-0.16813926083963696,1.6478910489725793,0.60745716696312224,0.99559010811440696,0.50427712551216342,-1.3388270765249382,-0.05119479352976599,-0.07928269541598279,1.6357551883882147,0.84424258936804797,0.59360308861362798,1.1170681288584039,2.8382265949662004,-0.26516830048322387,1.803791741265927,0.22779830098361351,-0.63692939064168297,-1.3110685165083635,-0.80170788150491668,-0.095829688220133658,0.86441087588404242,0.58541545402114492,1.6537487345750459,-1.3089186165711435,1.4676439823261775,0.92041325928991391,1.0205700363254104,-0.35884347469577288,3.7206232732458839,-1.3783280194250862,0.37443459880958813,-0.38014666633267363,0.061157221675016152,-1.1770471728545113,0.72726820071056308,-0.40352338884289718,-0.90933322700975061,-0.4739797510131783,-2.1722642795770239,0.22458004791768749,-0.60748966062146814,-0.52826133784169904,0.3822378112836155,0.54179862685594127,-0.50807220625104965,-0.40896905420001606,-1.1444117121275825,-1.9126949719997206,-1.3694964505959206,2.2971626959503855,0.65601582963920091,-1.3193097126520288,0.64207148381488977,-0.32713194059700607,0.1562871900082477,0.67331200768635668,-0.26567382231666997,0.78790639955111974,0.25922673574809563,1.363030779187042,0.20870272475489171,-1.012847701057277,-1.4332964562740313,0.89349768383350037,-1.2103745620705435,1.3825130571891164,-0.034401958946791572,0.13680516570960832,-0.028081211691247075,0.55050325425042446,-0.50067229169405192,-0.54688413135376823,0.10319313595509817,-0.33465453184095295,1.0776297142850491,0.26129040649754154,1.228168306005613,-0.48912185365395044,-1.3191332919239942,0.13430367630830595,-0.58935571616807425,-0.70777573406024952,-0.83982129187457544,1.4163070803840256,0.22655688255723652,-0.69699032328086896,1.1570723075208502,-0.89901227738265865,-1.0069012139808853,0.24138046452635753,0.017965060711232952,1.3920017681139238,0.24915933200460105,-0.31583204472351706,-0.88225754238202458,1.9804695920312843,-2.3493233785993981,-0.39219285017115985,0.28559060370420886,0.62969497059191548,-0.98513957959280463,-0.40086996209562764,-0.66389815846462108,2.0718399578631592,0.94805273928713296,-0.53153736947723096,0.90566457088439967,0.0026696594731158148,0.77244218278527965,1.1759768352337252,-0.11997243918999043,1.596351447019968,-1.6330824518644793,-1.0409597929754921,0.8770652900460929,-0.61403410643161371,-0.034463986358171772,-2.2655184423309045,-0.49331312559057711,2.0755894476917671,-3.0267287149734079,-1.0062410513376951,0.20968641873115695,-0.1677162015040651,0.50005228497678422,0.013407235994843713,1.4241275337155421,0.37645045536306471,-2.5528907138201511,-1.2579051667516294,-1.0870858296583712,-1.6152983640456577,-0.038973067040413971,-0.7297014255173806,-1.4614325811227269,1.130570237354199,0.13681548629454715,-1.0017043939879804,-0.25083561482140138,1.6434111802745037,0.88525649666470563,-0.63363655081606396,0.1758753358463625,-0.39761722573535696,1.1472266520405234,-0.35083337037440854,1.4264294773035968,0.66826736631605088,0.18092682595537002,-0.24372844292851048,-0.60576164893280959,-0.32873354195108861,-1.8092717147755939,1.5818260176154608,1.7282670219350897,0.077985719850872132,-0.88417912538309906,1.3625142235883321,1.0104293675984781,0.032177110107192944,0.8585002112605189,1.316089610403101,0.077335462901240146,-0.33088379124050843,1.7205915469874089,2.1050574362482988,-0.18106942116523445,0.22388648657919946,-1.0501947233787439,-0.087507278126760277,1.2081238945497923,-0.20744615041938683,1.0729362441037231,-0.099727301800745266,1.1805250027706122,-2.1469534382328699,0.45784969881721072,-0.82732733346905518,1.3439722111440222,-0.20965737719968772,1.2553737291231708,-1.6087694997478943,0.58879981022359285,1.0678745885411975,-0.92353658981061637,-1.0108848164134916,-1.475326601559614,0.86732556098826585,0.37746765538663785,-1.2859010979955874,-0.59555001349241699,-0.7669417826661119,-1.2665800502395501,0.66193002466980522,-0.039628604540787975,0.1809828010312714,-0.62714892181953452,-0.88375860530922912,-0.30314417238605423,1.0281432360244986,0.27472833641255784,2.0298559400109157,0.19828755627342123,1.5244215808444346,-0.16652190391253646,1.471805441902551,1.4494257722120034,1.7721010516714881,0.48584905260828259,-1.5724161886189183,-0.27882923889555972,-1.3112438139578684,-1.689046459539806,2.4091998454020178,0.41512280651062811,-0.68922186351205317,-0.046983512419133851,1.1408892372233719,-0.39621906421455089,1.1349035273154628,-1.7973513355225339,2.8595618087980239,-0.39598233602546623,0.19964134845828466,0.83517958956332972,-1.9852076449791451,0.40711208590113573,-0.9989485113494122,0.12552591727573051,-1.5233803023719097,-0.68594193223863664,0.97031485546408081,0.8122009118259107,-0.80193132535707345,0.048272858853555534,1.5483838721501344,-0.73870597190393339,-0.40054987637142059,-1.2515659535769637,-0.89823689455645994,-1.6291428788994458,-0.13059093963850624,0.028567069517690603,1.1996252071319187,0.76521013484735978,0.33615312293293498,0.055721239846152688,-0.15476002066028624,-0.38913500672503837,-0.16479327244013098,-1.4029352284051431,0.14005402681578769,1.1951223653698704,0.56773880014071221,-0.12722423326922366,-1.5532802003058181,1.6459369935538706,0.3952281648230262,-0.25579457689945617,-0.02844166020368994,0.40772821948196231,0.99041840443884221,-2.1755914132572247,-1.2397606272263642,0.76554628612239495,1.1848256327889204,-0.42256437781267475,-0.52571576913637019,-0.55591484025314175,0.44484136498405763,-0.65082809680598475,0.36681805979062199,1.1950136893637977,-0.070646853776933069,-1.11202577948265,-0.44996591377617029,-1.1885975019824697
0.23559618275666988,0.23346672704140445,-0.92547666129244521,0.2617231960744914,-0.076762439523473766,0.82273866102656856,-0.33453313775037746,-0.69893156915878718,-0.60958434145443852,-1.6750496110974875,0.15228625552998731,0.65736418306024436,-0.26761410189037593,-0.26417367352680099,-0.28500136026905498,1.0226469302729555,0.49581246225276987,-0.37054099567280729,-0.32317698070890549,-0.7954356825713923,-0.77232025095785595,-0.634642915152135,-1.4638951543483116,0.80129713332819885,0.17666231920671607,-0.61116378889561873,-0.31676393509702311,-0.55273807122781193,-0.23286720898722355,-0.61544581677087296,-0.066279557783576651,-0.25210119552015431,1.182278193382325,1.0345427524885984,0.66084397685035734,-0.99663198831275757,-2.5300025215643047,0.96281415487817401,-2.3009450415796411,0.92361818640363413,-0.42298140039050497,1.026537736344233,-1.66064417997618,0.85604486689145853,1.242574337530477,1.0459205609490976,1.3458130850348682,-0.085417683141011613,-0.89041448818082147,0.11269297634530932,-2.5992249628026944,0.23200918757841682,-0.75817062328502904,1.8445919732011888,1.2878495758285649,-0.93190238695347738,-0.78411944227259478,-1.5314585147690443,-0.52224950676496118,0.21949401430039298,1.6912037684110832,-2.027362459623768,-1.6679639507037247,2.0462865287128351,0.64751526508703183,-1.2587808993822551,-0.66356481928803279,-1.7478561769356329,-0.49446434393280536,0.023202499395833024,1.1448848610103071,-0.19136586588799676,-1.3215291768005168,0.022086712605568166,-1.3518082268563014,-0.37605079721596457,-0.28031890748766036,0.012942849258238352,0.12182547705392129,1.5420452241352283,-1.0583069798721756,0.79571592541892333,1.1658739928566468,2.0690517050996564,0.54339222038526114,-0.23708825820772128,2.5351966215095061,-1.0845032906460443,2.1875934989267307,-0.94216161653441977,-0.52459037707637601,0.47549207158641171,-0.48647711134421567,-0.60808766825021465,-0.045210223467019979,0.16226255696321534,-0.026057256863910635,1.9992262117957358,0.34633809294076839,-1.1838886868778447,0.68763274187749757,0.34801508986138607,0.6365730860568839,0.5143096382778366,1.696265117177411,0.06791728773071691,0.15903533631987549,0.57752159937545189,0.72363694668139522,0.61567834889009732,0.08470858847849666,0.055671267298643683,0.55724706230940024,-0.7718560069242969,0.15721445542275422,0.10114013504955745,-1.0250593201903548,-0.017453671135290998,1.2312882800686369,0.8933983417979825,-1.087350564654165,-0.1863330187768529,0.44986326652075792,-0.92125012697510966,0.73214775423744272,1.4035424714316451,-1.7678480574013924,-0.87084338383962034,-0.6696071072050449,-0.43530229874581472,-0.14946622694254,0.51824941656434587,2.0024607389634985,1.685709111059227,0.54669418534669678,0.401994706724569,1.8596109971218238,1.2800999627069511,-0.18018190152111194,-0.081828083294499157,0.28204714782704271,-2.0861776232607592,0.43898371377264112,0.49144705265528926,0.5198405670997337,1.3556169703882115,0.097672814641063074,-0.05854070281586865,1.1550102507002844,2.2354167765968342,1.0408794376714798,1.4534145855109539,1.6942423607781019,-0.98392793924506305,1.920741750073709,2.4324826122132532,0.69085965664523385,-0.25967886488724584,-0.91902504548800168,-0.44922623743006473,0.041723763588640529,-0.98289645389684599,-0.81396449262317638,-0.22984509986314972,0.29175464010203522,-1.2260810415828722,-0.031495059442281044,-1.7359462116558286,-0.24492500160876227,0.93607674357165027,-0.26744523756908689,0.72570936413773157,-0.47291580624390489,2.7233313487112287,0.18277827983549869,0.031041534232084774,-1.724723248090529,-0.3876881383466001,0.36817803100195007,1.14690932082954,0.15138849730874923,-1.5524161545425008,2.4408645847679367,-0.22788090493336882,-0.011157787799103291,0.70379403554332731,-0.031866278148416714,1.5524683409653153,1.843109614136939,1.5500834634540122,0.054989982690412248,-0.2677638644406708,1.0415385829712476,-0.2388430529942408,-0.13449861707640787,-0.66065608186883662,2.3333455005141848,0.21318967343002992,0.27336878629555023,0.25665763586766271,-0.88348354444454302,1.3399296931857991,-0.648238149263209,-0.82204179257639143,1.4355114250166827,1.2505813183997183,0.57103597280253926,0.3473940616023079,-1.0535047121850176,-0.39929596198300094,1.1555169717868232,1.2129248456081532,-0.06171289347020531,1.9262660032311076,-0.95206054113228467,0.74081084575638734,-0.066539583824274939,0.59409106669636846,-1.1824891424218591,0.52350411521319451,-1.0475266588804857,-0.55479467309022701,0.029552156079358346,-0.51128163070416588,-0.21969427634914457,-1.7268553184797633,1.3498714077083485,-1.4313004048014253,0.66032944318835773,0.16458562820846892,0.53829771892660672,-0.71727383685873836,-1.5366126287753907,-1.5744177340988921,1.0715586555606915,-0.60832977785231257,1.4386115676484383,0.42249208926616577,-0.14501159920459736,-0.41019599764077902,-0.4303141600906884,-0.63160461059984185,-0.71535777608374618,0.28833153987551585,1.7687277397342049,-0.56240872016499643,0.21383744719399075,1.4211651801296077,0.31233946297286808,1.4429922637711705,-0.11387756084190712,-1.4938762605070437,0.31910321104578254,0.96141034162939676,-0.3755807522596506,0.80467337386958315,0.97866395552273888,-0.31171426637275662,2.1263430858581969,1.3647281681664998,-0.31247828970327296,0.83935200861193815,1.1844859415942823,0.057709160826824348,0.99979287367289105,0.83204495058061811,0.8577572864255083,1.3676820957288052,-0.23403217600569351,0.97057339759695838,-0.33911738469928532,0.89779028799812266,-1.1125540048565137,-0.82699262742252566,-0.080996686177766869,-0.34761833138882725,-0.94542305862889875,-0.85353460812572857,0.99425061094513756,-0.29760021273263798,0.26628032190989992,-1.2321458004646142,0.80089275573003249,0.081166670140472741,0.3133366054457199,0.47763433728790788,-0.16515548965603311,-0.081905719243693387,-1.9162529805786448,-0.16465319975611117,-1.9873106038067447,-1.4933958780573873,0.33348541671843723,-1.0240332951196665,-0.56662362999766491,0.0817016757275527,-2.2555846569411195,-0.057892363556205112,-1.2109601956839646,-1.1878901060854548,0.56511676727369742,-0.59364143617344756,1.3072652222171461,-0.20325046764533888,-1.9935414907880304,-0.42187429543965027,-0.47950700519608885,-0.57065395656731843,0.13963949360849048,0.96164852798986911,-1.1344256487295932,-0.37884359978417409,-0.10258675257573524,0.68113576355038497,1.2466924075583421,0.81062351703008051,1.009666803686242,-1.1546781792266212,-0.89533414215585538,-0.54729525101712229,0.58875654950448575,-1.6663035376649498,-0.34460365197379872,0.15776744188275529,-0.59529692603523199,-0.6559120253516969,0.32779899814508628,-1.0217661611117235,-0.35360391933205715,0.32891397649252047,0.62705182305837903,-0.74490514597747237,-0.54122713323735039,0.10805460815716644,-0.26925309282908877,0.059047980769045952,0.705296567790894,-1.0418637853480033,1.0407014014047373,-1.0970107057707448,0.65464323557513648,-1.0056994462477014,1.8771848434944032,-0.85095593176152085,0.90595941394468049,1.0684647018431355,0.86418107510869691,-1.6460616683122666,0.69064806188903749,0.53915680342129879,2.2625831684579185,-1.908690830629622,-1.5450160083412161,-0.29864849036605012,-0.55156974248667434,0.085469243876212311,1.2122311364429148,-1.2742299870015315,0.42705961002229309,0.74004794431663845,-0.15279448936881834,0.69895475341928637,-1.2946274457000375,-0.79232755685187051,1.1061730936247278,1.2568463507148631,0.60123012090499295,0.6967976333873237,-0.76110316636914344,-0.53608523376268213,-1.2692070213306608,-0.59208197730009005,0.98251281666894152,1.5812249991915184,0.66434958975804326,0.48960178912869029,0.7900350087992779,0.73078694512694686,0.59886147166557258,-0.66563306826221325,-1.1236907865009942,0.02881283182009399,0.57693283381923155,0.45071979899296238,1.0350813925635096,0.81660441552298291,-0.54143767029910539,-0.78541860549822884,-0.068033821215242193,1.6675466061186792,0.46164365353965903,-0.59417471197571214,-0.8323200180245558,0.64364314863971539,0.50105951223810796,0.49721258996505069,0.91838048006870598,0.63233330459216186,0.12512151665011456,0.14806888586280506,-0.58728689557276359,0.36722685870287197,0.05513337471685318,1.5392639543350866,0.45296405350291991,0.92767216239560846,-1.3497612192966237,0.3034718481078254,-0.91753872213902499,0.35479368660311023,-0.81284048600185455,0.29287921531321059,-0.65521771631428605,-0.59569533209211123,1.2099296272193574,-0.057775073706423118,0.55199256070882396,-1.0364361452065205,0.38217609851543771,1.1739530875545712,2.0754511470250412,-0.43773502478640119,0.4515468181799302,-0.22908000877641965,1.9838959950284962,0.1517432147059351,0.36453758469217523,0.038087107421646303,-0.02452342857882828,1.3695651110004272,0.22271448723121912,1.4625763255457123,0.060836513036035565,-1.1752017101602057,-0.04746663697461926,0.78483552707463067,0.14987392371010733,-1.6518069796458263,-0.14282902570174277,1.1594807273322036,-0.45309773057238734,2.5157827345086488,-0.25015959474728577,0.88101589833579941,-0.87617410289540809,0.94015404057551144,-0.058110375479051943,0.70130660127979205,0.95046648340363482,0.52728526139757415,-0.80370871197265381,-1.5818935620029579,0.39827324734780789,1.272699466165901,0.36334720621099209,0.55584696537892531,-0.58789423254453443,-1.4581646515157498,0.9872919113739228,-1.2998292586804068,1.4501129464150255,-1.6091941459067729,2.0122710970834667,0.093778298095248278,0.080047062539339325,0.68191987377939856,0.34832005423340179,0.10334246208825264,-0.57750076299513764,1.4023729168802621,-0.80536173172625913,0.61306499012086424,-1.3895183778998617,-0.21410329974903936,0.10365157386195066,0.25355509173393453,1.8889845091954667,0.24976619314957893,-1.5592631642090595,1.4681872427197942,-1.8727394842065594,-0.03148719062404283,-0.042389243468496499,-0.86362406761067478,-0.49554812234665874,-1.3508983378550288,-0.3476534252881141,0.77224181368875289,0.6917275547714743,1.2722212573631304,0.38024487124828782,-0.18295046150862335,-0.14288526500882928,-1.2159934168983784,2.7076975429357297,-0.29219210539836643,-1.2118599585834748,-0.37036574104081182,0.14607055341740838,0.86406384612991993
