1.6251029884575123,0.19101167638532746,2.2098036091132585,0.39842809535304541,-1.8792884543647874,-1.1891726187021194,0.49324988005977105,-2.1806613379201236,-0.091260828791421139,-0.27933079103464231,0.7872656504550567,1.0179415363535271,0.7264952614492991,-1.1711720115010265,-1.9462781775143911,-0.2978561199466559,-0.97470834193806744,-1.1412856561322975,0.54867938309648645,-1.7905590350561047,-0.79490035708713103,1.2585502020429125,0.41543441061369063,0.65778687601913388,1.0475416893766545,1.9502374784058298,-0.20065913205475663,0.51720695435537012,1.5336308812054971,-0.40637209886110687,-0.805853327564379,0.30257197010499748,0.48663832839361537,-0.1598526880122263,1.6072844305811371,0.19701572649026733,-0.78422788235909113,0.44652888851690042,-0.41831717701121124,-2.1222965541363923,0.76935482323811111,0.47720194156769685,0.13404749182008507,-0.81611706624721447,-0.5214991029145386,-1.6981631247142517,1.265192478233595,0.46878897125095265,0.37271835131868286,1.9766804322383518,0.89001387444350977,1.5013218106356367,-2.8791013632013205,-0.2651786723771023,0.52176592285672008,1.1654825162252966,-0.038161445917847966,-0.55090941977717833,-0.17063614364196181,0.68714098807446811,1.5533642102358891,1.6836942463852687,0.3160150440499368,-1.7960714900917267,-0.86557905843626204,-0.13364572121729723,-0.04900429728609413,-1.5432589837494437,-0.90682362021847451,0.07373574755343601,0.97005050817988125,-1.2907561776255492,0.080856520138457219,0.082778686681177285,-0.83976034147788725,2.2641788238163101,0.44664320104534228,-0.49174355384306812,-2.4123790465099977,-0.59484710125329288,0.14510550189764415,-0.97369436854045477,1.3649761869916583,0.064733349201439874,-1.0265807186763303,-0.37960124934982614,0.71985639877258323,-0.70220224999884728,0.91174912689911936,-0.089107878395019338,-0.014214461084054957,1.8682159639452633,0.87252228976257706,-0.66350138773063039,0.67748101436882524,0.88894003387895304,0.11210306354461921,-0.40863096341013078,-0.96310068869927556,-0.2572022861883525,-1.3959574651621462,0.49225632472649183,-0.37225292558769507,-0.41043007367118495,-1.007018538318448,-0.31141395126595811,-1.065856478095264,-0.45953044629692597,0.37981042726676645,1.489606073081253,-2.6853760530070425,0.99642563957900188,-1.697091180789251,0.01668695877747526,-1.677667322849921,0.152956846635074,0.21119075961042341,-0.16077674503754247,0.4231099494197485,0.32691072286373229,-0.31417354761083682,-0.69738290480282006,-0.92802968832449217,1.34053878197453,1.5057529301260535,-0.89497518667338971,0.31404002739530501,-0.5313803697613505,1.0188681681452199,0.26148630803801615,-0.98821856104582317,-0.013676815266221578,-0.57606736834934802,0.022513372902684164,0.13551503503038942,1.0696609177166698,-1.1331150920129189,0.4221759882707985,2.1192857064127137,1.2848461824661792,0.30548716515810492,-1.0504562281213035,-2.3531172622021019,-1.8077144236131222,0.55653088262018602,0.21203313281287003,-0.045970192674446297,0.22019128702941193,-1.2994149372050201,1.5269509790183085,0.789580108061262,-0.12862620062590457,0.075665697752949901,1.4382968607495119,-0.43876057720567441,-1.3377608001580925,0.89445038918675202,-0.86391121886938815,0.30718727033019633,0.55192265369285787,-0.62031604602047397,-0.0088588229198126103,-0.90784149690323113,2.5797194273315069,-1.7997389665426873,1.3587826203535991,-1.1396858314933271,-0.00039475845339884315,1.0232089055348117,0.13351778173570461,0.012250413133581486,-1.1560495131224693,-1.4019268186917924,0.13314740163415315,0.50222998690520482,1.0416232097726235,-0.12959301541148321,0.58662221561396966,0.66986023181158361,2.0806932517575771,-0.11344097989682321,0.55456990179065924,-1.3869529902856668,0.06521947641788195,-0.34909699067542777,1.7293658732268427,-0.11499097556391381,-0.62540379493810228,-0.19514174027551018,1.53071720531089,-0.0084741002872920756,-0.11678717021171811,-0.45740909910378807,-0.14872554715343222,0.20075406846901844,0.40858922301912964,-0.20853848422160182,-2.1172065282034938,-0.06013356968553079,-1.0303472698091041,0.76099458051612712,-1.5223066247357908,-0.2389692914978796,-0.4562356295707013,0.5888402100072534,-0.57516832856424926,1.7435217557458174,-0.42314415304796288,-0.67210175808082651,-0.2129839143948252,1.2363307563142858,0.33449728814739094,1.0924170788792686,1.7871060160064791,-1.3285038695551818,-2.8075738412439595,0.71798223354385449,-0.071750126157426652,-3.3622735909907653,-1.010210757244244,-0.12344320838731465,-1.4319751026653427,-0.60371394768044906,0.40107080310143695,-1.0029321982901369,0.26588150665777122,-1.0951868675758041,0.86069117937459616,-0.084572248538670333,-1.3991959629462791,0.94222713146441561,0.18383418607578891,-0.34433809341106181,1.230098942738842,0.99937807761224728,0.94988141504001344,-0.038861511575479665,1.0575867472575939,0.58607307031574574,1.7014954704245357,1.9274955296652225,0.7220908428474051,1.0292035832330595,-0.74877611345854245,0.075549991295694924,-0.34941584521630309,0.18313235301609415,0.97214314913884248,0.18251286660731914,-0.76426777228814335,-1.8194568963550621,-2.8685336607218037,-0.89887109202064575,1.297506207637064,-0.10350241163983802,0.73228118209448345,-0.64403562237210776,-0.31214217231325503,-0.097350564388923297,0.53242425299131502,1.5756334648087704,-1.3035176166876088,-1.2420791145197165,-0.53644294311255025,-0.22438764113322851,1.8930459519911447,0.28789442298816265,-0.77877452631955391,-0.099596932158886889,-0.36860641073528866,-1.2828765571718246,0.76207301929799276,0.0086798798234082233,0.2042236677487741,0.53442856379640469,1.9097054156145046,1.7135808087134206,-0.49813824386228661,1.0039938060329774,-0.24680707283374251,-1.7787381024642037,-1.203879152043303,-0.92410929304324796,2.179297748775515,-1.1198465936522763,1.3224191791819984,0.37194157898087127,0.56806767143557801,0.069566290899483643,-0.82618444588248552,1.9912419014166096,0.2449431894830536,0.6901361549276781,0.63743115819427765,-1.6323483988639023,-0.46234170906149252,0.27652271600980238,1.4839920843978114,1.0476204433320166,-1.5119634292952886,-0.53974075392646126,-0.36918448614792554,-1.2632520096951927,2.3941600900141489,0.31689343890523786,-0.099086561467498432,-0.92943142375803456,0.49451339373978637,0.51242721490371301,-0.27997083146810398,0.77729086993106966,-0.75707264946539221,-0.020467566614920746,0.81963957682097277,-0.60500122648170562,1.0963741352880287,-0.64943534835499728,-0.11328107042863332,-1.1785607351754273,1.0344433274688747,-1.4246863514357706,-0.9126968139647943,0.053489955695429893,-0.19903514380707307,-1.2891331990454271,0.019791268480581204,-0.31268228838391027,0.20949877645373965,0.99883528714459902,-1.2247135351857648,-0.33612315820980521,1.8979457862115294,-0.091181190032310386,0.53759976590581604,-0.79147412815877516,0.16646839754429746,-0.99939439237903971,0.24742605367020507,-1.2656451621689251,-0.14375775183969516,0.50515369494931051,-1.0652634573248749,0.6534419762927185,-1.7886807464475343,-0.79170802492711889,-0.66861677987420098,-1.7213371051700403,-0.55005898610067827,0.91627345752616762,0.81327271202012763,-0.55676174673677048,1.4464872342807138,2.3264019740464255,1.0786674113931303,-1.3744889799163449,0.55556932692354144,2.0239500010727638,-0.71704530842383052,0.16221793712520285,-0.045301297598435493,-1.3459004019971041,-0.65622739650327777,-0.70836966360330311,0.46859991780183397,-0.8444428807159613,0.90270699462636805,-0.17044138220123983,-0.31793966792521389,0.56619293139652227,1.5387628115659953,1.3783931987630826,-0.43577619094136233,1.2541288028546456,-0.34888574382815424,0.38032152798501051,-0.33546527927660275,-0.38987207995785916,1.5138866857200739,-0.40838588397242742,-1.2767268741766313,1.2940380634021174,0.82458071914424746,1.0942877060343275,1.6622664882149831,-0.47565774415150297,-0.29829020264534395,0.86475547060314462,1.794288933940003,-0.26284578906554867,-1.1407084886557897,-1.0214452181972944,0.3688600876239706,0.24485535757588664,-0.6154948885900644,1.7295618015435481,-1.8609424328654067,0.32319059151382723,-0.13863767669485075,0.3317414235711062,-0.45777462930129781,1.1869338757229135,1.1871609610838896,1.4008663638728291,0.79811383346953979,0.072161577957558259,-0.060487933735355277,0.31850590596580813,1.0435931675953085,-0.68302001512007449,0.1072884805175021,0.45490207388009496,-0.57321878884513466,-1.1811009831202768,-1.1850432686771015,-0.041716346706286878,-1.3986699936935221,-1.2348203343199398,-1.5147464813287812,0.074454048029487574,-2.067244004130703,-0.51397630930325078,0.31974555643535513,0.27965959439789667,0.51123142500571506,0.79718444036588687,1.3879325651582874,0.060200700441283075,-0.24293802373994999,-0.6849632298731444,-0.097623996599815299,0.10291882321665484,2.3257128645419525,0.077686493703521195,-0.81475418607128558,-1.1106606545064075,-1.0238219565442999,1.5129700396065504,1.3706950742649293,-2.1858947588904485,0.43860249746811092,0.57882656257175447,-1.1845074497271095,0.060682911848076733,0.88833945908145207,1.2529800006155127,-0.43332628907335563,-0.74555278358651311,0.51175350945289222,-0.52732111925240877,1.0414180920767926,0.16181879939195504,1.6414947866969183,1.7293976297134563,-0.50525428369194991,-2.8523210053420556,0.24879755481688734,0.082473844023271015,1.7938383303556809,0.92931415662625894,-0.20537993664733614,-0.63264563104218685,0.37149809058359368,-0.67188698661583368,0.99069431959179666,-0.93653567051913589,1.009523390537779,-0.6485213183905395,0.51555835773841219,-0.87269785566451197,1.7172165947253151,-1.3050807691242652,0.45453266707542578,0.27442521157655692,0.36398804737619433,0.27426656309130998,-0.52948813106285553,-0.75853571439382383,-0.84759061688560189,0.17607146978358065,0.53732224854045418,-0.59927599191913672,-0.37578167902640747,1.1049884441596909,-0.87517039669076624,0.47682044571156784,1.6763964251957564,-1.1692123818028759,0.48552379210882907,-1.4030495170977382,-0.51275323416988883,1.3646313261557015,0.77428169923187484,0.75733752832468237,-1.5766866945339415,-0.94156006631367894,-1.3543024639248773,-0.21742891497483993,0.5071283169989298,0.88165465341491844,-0.72496934284166648,-1.0714973740161988,-0.149916765379078,-0.13791948610702859,-0.21516769956011866,-0.98078773337347136,0.51360655895629748,0.06108043651069181,-3.1045832013424981,1.0057027002771939,0.5174344500446062,0.09127841596000888,-2.0045066090575356,-0.99389644017823775,0.46366515672085168,1.5985837422244551,-1.6570465364265798,-1.0173864041211931,-0.42813638136689941,-0.83548181733761551,-0.31338316422425444,0.73334902119191692,1.2165141744540691,0.2577317867580412,0.34115074547061969,0.78157368542973571,-1.4041824277005632,-0.20404617371694619,0.88794467011823208,-0.47974709798214377,0.4357445653901772,0.65217627323163219,0.91288651844457691,3.0936065535731503,-0.011682480467828896,-1.8567962325837792,-0.27659579304613269,1.3455087097175793,-0.65775430108844901,0.17146730263080928,-1.1008291242475585,-0.76309347658899795,-0.4262347705247404,-0.76681853269063016,1.3406818739886686,0.16194102609606323,-0.38698816794048418,1.0500899643200161,-0.5383402706764685,-1.4594112594915445,1.1227687222875844,0.60542557616749126,-2.1422780255197069,-2.7064550069171762,0.64051367123954028,0.26231366392665295,0.18733432222445676,-0.2620148097195118,0.71161515118450802,-1.8854177978861864,-0.47512592000728576,-0.0063301838938199552,-0.87919464005838066,0.49611587108846722,1.0257715559036782,2.684394465509754,-0.62600640499048765,1.8181448756271956,2.2281852686025196,-1.0424349070017267,1.5067017743274305,0.23465608724902201,-0.64341544521294614,0.26096081400099874,0.87652833024466326,-0.85524958626378655,-0.31253141258922185,0.10655300214975136,-0.71578160163503479,-0.83282724085148852,-0.36953367868292697,-1.2544452037937035,1.2378788779727135,0.98173012643256485,0.54400819606137529,0.37006429296934046,-2.2446759202947963,-0.5431400855869194,0.84867111522600158,0.97747306140263901,-2.0451650285847607,-1.2608790381005337,-1.0884987436366638,1.1188130736101967,1.8974565733393429,-0.39076500095517824,-0.1964559133968897,0.267496607120362,-0.8113507819044945,-0.61565476398701535,0.074775312419522344,0.52994028046172537,-1.2158757707145487,-1.6432962990833178,-0.02325195437586574,-1.5821314537847813,-0.14050794609588893,0.78403645638848041,-1.3779693792175423,-0.42167993924884561,0.2621947939300866,1.5827843415793255,0.77036255970584055,0.69721493168778037,1.0270368036990796,0.49520417050929144,-0.41420830403534098,-0.66438897094843663,-2.5507504259214753,-0.29166075148305382,0.056202748084588972,0.099412778410571473,-1.0799172947836975,0.27200298894542907,0.50809796948948571,0.071537084308525262,-0.18959548726942985,0.57133983205561434,-1.8398323461211277,-0.59779421375634567,0.16012518409564211,-1.0290274842753524,1.3977294442713049,-0.098582697785345702,-0.43800354839064659,-0.52620226785727964,-0.045988898855834653,1.0959037089960335,0.60121218723625602,-0.5541499751832154,0.4665953321677761,0.62743592207647214,-0.25208964125107841,0.56987702857851574,-0.97811839351395513,1.769147583833566,1.1702099439574098,-0.3176428117605743,-2.0976287641870819,0.25368892474548321,0.54811907936473681,-1.1081760545385149,0.67895964577236023,0.26339744593391973,-0.95565447090393119,0.48767778500684827,-2.4903915429623704,1.0686577162656865,0.94657069376987857,-0.65523370645051426,1.07095882561494,1.4699018208752239,-0.67663128195759736,-0.62760443421821177,-0.51651876890767046,0.55969696321455775,1.2808281017864143,-1.1483537997570905,-0.45967572333123441,0.0075013500188143463,-1.2038956898075428,-0.9518902538447378,-1.3463282716440004,-0.25072145528214451,-0.70364625406853032,0.61862785676340604,-0.69728181325795391,-0.19513950734633548,-1.2208118575463691,0.51781729353063588,1.0842076715505029,1.2782394093150768,0.50771096576686425,-1.3048559864062084,0.54591960951906537,0.96071550117565929,-0.51173144158936856,0.23243666457351292,0.15921922808816483,1.3370199346344191,1.2905620231402719,0.73081210422029019,-1.0726583954360798,-0.37488194003162051,-0.87545576309120887,-0.16999181656026199,0.78882950169291199,-0.71108679664516616,0.31618659700416396,-0.75638672707999122,2.5111354634667511,-0.44937991680866612,-0.025727326741590738,0.80920463018212996,0.57086698746861975,-0.2507683314626622,-0.29856385039286948,0.89750808556907324,-0.21112602607369718,-0.3540925599275298,0.045954651019065221,0.20344805066281596,-0.85742010262557344,1.418589587806715,1.4307985470794893,1.1483003542662307,0.15709698132782118,-0.80375843835249683,-0.71490451310929504,-0.27047438553800313,1.0865579597165329,-0.66004043368772125,1.1802514021120658,0.084545196390807598,-0.8063556326188499,-0.23804071773667076,0.16608567704241384,-0.0085331642249290764,-0.54162765354811437,0.43156134975605892,-1.0086216087340631,1.8484899810224398,-1.2127025990277684,0.35352016171442913,0.46625940686450823,-1.2982644400759698,-1.495440930109911,1.2424314599342849,0.15930685312724815,0.5246256277230702,0.4706509437568166,0.65978917654666025,-1.3932420001614909,-1.4968358918157416,0.28060726359781607,-0.67720599967503259,0.63371198405996942,0.57136697292854743,-1.4385807099757899,0.53919285292016816,1.3172118259736387,-0.59308398824355257,0.94840895587604523,-0.50565210517642378,1.3500009488209193,0.51931513232174775,-0.14499244430597777,0.17416245293456439,1.7309832740560451,-0.069255501189967553,-0.65957546604231387,0.89311094765075094,-1.1774875205791546,-1.0746074424581598,-0.45148228082300429,0.5512737899625374,-0.53530089668138459,0.22833290529197708,0.49586894486356331,-0.95881798891393222,-0.37699888400086218,1.533101542851854,0.11313726840703264,-0.96259308196393933,-1.3398569369829043,0.35581627111042624,-1.5681590959010103,0.10924785643738408,-0.010289629478601381,1.3187471163538986,-0.21933679985496218,1.1434372098387395,-1.7586857137394427,-0.99210358402824261,-0.71423668034395815,-0.47655193414107078,0.16538312832526852,2.2664854144044932,1.0609067566474473,0.20590102348100292,0.50115829755005625,-0.20407605699037401,1.000161339380369,-0.048081148540318759,-1.1221364676519059,-0.20007906814245111,0.46107204214905434,0.93741312939440169,-0.79010078495356317,0.82829960973342287,0.096371299924910558,-0.36568062504287091,0.11032223174582655,-0.68756694072045599,-0.36580978886794907,1.9203157417165262,0.30204943361270903,-0.8535714165101902,-0.40075709948763732,-1.2896209832612744,-1.5037577317474871,1.0640088648165242,1.4545280147721429,1.2695929302108606,-0.69847018965315621,0.95686861933526146,0.26087797321873207,-0.46020142350340953,0.11567340250827124,1.4394540336552768,-1.0334772770234315,0.44233710647171831,1.2973526079122164,1.844232619400207,-0.43262121518696389,-0.055331003666408987,-0.1904464740574342,-0.94377023288241124,0.83291035250654022,-0.39577083372679089,0.063381681788852839,-0.47957652025542485,2.1539737864474411,1.2328344600618142,-1.5229481151636561,1.3151384108747612,-0.92566785116776706,1.7590774148445967,0.22175717074784956,1.0128773240921751,0.35193442706709771,0.23559552718824048,-0.20098058866577717,-3.0040321795223104,-0.78994410510828628,1.7447938475292692,-0.10316220676921699,-1.2421971147268911,0.45617483523051083,0.57895538354993403,-0.49015587257179288,0.5754361711338859,0.11147738258236324,0.038281387207562446,0.66862721327999997,1.8211635008957063,-0.028453071035385823,2.0116630377685354,1.1947554153892488,0.057406743672450494,0.41442682813030002,-0.34672568747192167,-3.0203016812794572,1.8855443969152121,0.91916318083199422,-1.0102857818497919,0.026879447014219016,1.3164782203165544,0.53828589791632653,-0.0036584540174435702,-0.21493260752177323,0.98901997184212054,0.2986037873396552,1.1334075469417122,-0.57142385389637551,-1.1743477997156186,0.11939730015847888,-0.012015249672263414,-1.1102406940631724,-3.0437688598614834,0.68038347794994614,0.5800804332884566,1.0246437675414752,-0.23724489835555848,-1.2392544682583273,0.043925047262944605,0.27411680856271092,-0.15969077906625007,-1.2234230488134463,1.3133549060324186,0.8412649976301585,0.91335370290178708,0.36016719176101492,-1.1658360710160813,-0.61652075495350844,-0.22876140108129411,1.42435258901132,-0.72055159157513993,0.14473264594343713,-0.57738036153627159,-0.5918088723465128,0.49080984231182428,2.0966689268549286,0.48420196716772407,-0.45296449936183802,1.3534561067166884,-0.25771494252380628,0.10434607864494286,-1.2073744034702854,-1.7171516968324656,2.0998844615448213,1.1970236568946901,1.2997105437205938,0.92107790659462641,1.5051187612014965,-0.78839465394981334,-0.0068358475880810421,-1.9453895356960709,-0.65169494978071352,-0.59600476857112972,-0.30228455592974013,-0.88845963331998057,-0.82093001419814238,-1.2549756187558683,1.0015018784221321,-0.57583983761987878,-1.1294371035520998,0.46723171895087923,-0.42885740905802522,-0.68971966685713837,0.89149617379130042,-0.64447977442249771,-2.71266356344786,-0.52129910066766905,1.4294507149475446,0.79280874042822969,0.7929819723824717,-0.18348473520143069,1.6961970158945763,-1.3222005802277725,0.24855391104124594,0.12638755275944771,1.9059989147100518,-0.52505959168588667,0.28721506791151591,-0.81148850167590481,-0.80788757316603466,0.60801365138670682,-0.76560585621209187,-0.79013869131691594,1.5035392621194636,-0.38777655279398182,1.0474886678174848,-1.03866429397412,-1.4614590581298947,-0.33916874320190993,-0.6763324320229922,1.1139706980774202,1.8247651962334266,-0.14220571989207098,0.31051008955484427,-0.091908752519699904,-0.11740360440781229,1.5259665006032168,2.3794391729113737,-2.1171249253291071,-0.05218949553744353,-1.9318661546968525,2.4434751175394869,-1.6896698062064004,1.3518118508851475,1.3600900930538633,-0.9669033507815652,-0.33445107922432016,1.577146752976748,-0.35256344951491375,0.21710737363648125,1.7283698720658491,-0.35937705301085665,0.59609556057492119,0.57279557321061969,0.3025128646975403,0.44572712004366694,-0.34971203030164466,-0.18984873877710545,-1.0962398296517308,0.75401740037342868,-0.51865978658342449,-0.89196194940774065,-0.25365120855582785,-0.1453148593546606,0.025175351749126492,0.98531270102575863,1.2190336151087038,0.047589899705724435,-1.6145305878818035,0.18302289362316276,-0.22932311356340818,-0.14602360308401563,0.82161612245785776,0.45452913908265136,0.086936044534641571,-1.0350272529030311,1.678466022820029,-0.60392554642098728,2.3070021516787316,-0.81680797722150222,-1.9184725959855102,-2.1526634691689077,-1.3831953878506964,-0.45830994869393937,1.0490090681829147,-0.08558853759083096,0.15397373316384858,0.25308366389706544,1.108116856602362,0.31256436690147327,-0.52457767365782848,-1.48991296335877,0.22266644237311248,0.62813651789502101,-1.7841228674070544,-1.239987625028707,-0.24815273257877624,0.92249501449601279,0.31696481418307132,0.72203810471352903,-0.58223686699807942,0.5444940380924469,0.57944681607665693,-0.39450049058023895,-0.17488961997708588,0.82705378152416142,0.16403919459284308,1.1136583462267009,0.60699182064562696,-0.38748809982652704,-0.91306946785820164,0.4418501365048017,0.47122959022486866,-1.8754637110045489,0.34129043851066349,1.132287654441646,-1.2543842603569237,0.90716096810232139,-1.5279434831200842,-0.84166904031842049,-1.7135372348721283,-0.18509554466415043,0.66067440988337833,0.2168161131245708,0.47825802571569581,-0.53898276562378444,-0.16680473972043225,0.27090336546194799,0.15239285168818056,0.76696362419757802,-0.36095649853296646,-0.46302679700920601,0.41347051743049029,-2.0220679562083368,0.36792434138947838,-0.98719390546810803,0.88845740454243849,-0.598740008152567,0.77850664698196492,-1.4986285367344925,1.2961839307869056,0.7386939973819856,-0.038938710457404151,0.54255512345708234,0.87277352440714351,1.0858037059986567,0.047025794237363631,-0.17668512542226764,-0.834430912272216,2.2494161601695697,0.68080349445769306,-0.53285403009746868,-0.80029591002585454,-0.51575604596598279,-0.79660162152581193,1.8879971733198904,-1.0191095086786244,0.71369241968266528,-0.16740281254498468,1.1952236536773011,0.041888615133222194,-0.67118458352441257,0.71379679157059317,-1.2719549123279357,0.034513266031438616,0.33499632872890378,0.69829180802558422,-1.6119441558057508,1.3183366082175201,0.10479947095506233,0.1881841326822275,0.2779159551337218,1.2431050850412553,0.06737329742807821,0.7194631849740859,0.34891910340585364,-1.1180366120475891,1.9312679330469611,-0.56159434549870457,-1.7624239948221661,-1.5891103361683248,0.83116695132161633,0.82398445036621004,-0.039658034836294737,0.42876856190470647,-0.90856167017623235,-0.090249566540501244,0.90545996867258149,0.94372602061468891,0.31481747993958459,-0.6617549184566619,-0.9210405152337684,1.7556227606744703,-1.1205883001750485,0.12565978416334864,-0.73057925624951525,-0.72534261532866395,0.73093620731382913,0.36255658024238197,-0.81120759319542901,1.2640028106995624,-0.41766682300831326,-0.13063916687483751,1.7953742405811339,1.4815186198899042,0.9479637632599115,0.0067427043223535635,-0.75992952595653684,-1.3965393624090396,-0.41808601772639548,-1.6728956842666374,-0.41754940507229693,-0.72080967061847201,-2.1539006746513576,1.4359715367104378,-0.87392490920636223,0.89829540312892575,0.63708370648357349,-2.1915771315943533,-0.79982171213436359,0.79168025145104148,-2.3880174255936151,0.075755785385871743,0.29407990650575133,1.2257112665655456,0.31201759365873105,1.1637953545082111,-0.67360859748684143,0.77800530117177302,1.3292595869637494,0.24287897599162164,2.5378256034079101,1.165447920242217,0.0058378260472463587,-1.8108425123793017,0.71577766860461056,0.092452027258338482,-1.1211882315208841,-1.0490196221882753,-0.83128811042579231,0.92657341107256364,-1.2698726520557253,0.72429376829430669,-0.91713633579857179,-1.1567437406848877,0.15803884365138729,0.80690824886318768,-1.1923013762063417,-0.96119382033871148,-0.8953917312539551,-0.35786811130735435,0.38276992279023103,-1.0679073425341399,-0.56459325165418317,1.436836291522875,-0.58734392840682514,1.518692562387326,1.5062616682290291,-0.95860010918862082,0.9235786370893978,-1.1933414407014009,2.0032458488712725,1.4225157075115973,-0.59848603984721094,-0.63766716899157594,0.57928102137668747,1.3701782022410469,0.61837608316659731,0.31180136978241563,-0.39889940139242636,0.83326703836565819,1.4568965974713259,-0.6963449188209947,1.4102856368848737,0.55440044312216208,0.0089532167056065003,-1.5353318435161056,-0.73470006490471318,2.6392231680191633,-0.12994231933456199,0.52498859482433269,0.23453959699042259,-0.27215762271854438,-0.35585768554681096,-0.87066447079931375,-1.7492437222283488,1.3425424945531137,-0.65196851141920653,1.3256411538645785,1.0157407135860907,-1.1474357913018458,-0.81810016560140608,0.83615107434059277,-0.21887131170517179,-0.10271786755195512,1.1156426764020964,-1.4584664326282006,-0.90032888383844722,0.91386078166355333,-0.65660927507469624,-2.5842102445404933,1.2613354343795962,0.88690520908558257,-0.29799562776268418,-0.44872091329955566,0.48489674844094538,-0.048644618241619128,-0.31696650654575637,-0.25147422010427223,0.15363964707975633,-1.654455006056357,1.0009764098922904,-0.0099481457529568169,-0.19427905794031694,-1.3573435952348429,-0.02489974106926297,0.63794487296081348,1.552931210558282,-0.24712338747978527,-1.2550686951376511,0.10874263980681927,0.91756693066198924,-1.0479701702806909,-0.97677327247754875,0.40979105989824011,0.57189816461457899,0.35527643421005783,-0.3777341329097838,-0.77387710279103639,-1.4409389083781876,-0.038297916720667222,0.69800527873731866,1.3440981805266909,-0.16922050566265207,-0.27707841497415897,0.24510992067664139,-0.42478004717958284,-0.16026115210276043,1.0503074354967561,0.78288329811507607,0.51003237301748205,-0.11997374526589419,-0.84792932687814382,-0.32865405892178867,1.2884508414938938,-0.58716302052821179,-1.5738004367415239,-0.7284042546329188,-0.82457747550218397,-0.73764141073004574,-0.49074815233661268,0.64329045796906714,1.3581260662724388,-0.84522861393258397,0.60830998017577753,0.32148731582873596,-1.1600675642000458,0.58174451651091008,0.39713740764750172,1.2560190875812798,-1.8192710313881335,0.88670699523085317,2.4194741098651074,-0.023278913367692,-1.895738108314351,0.35982069483775742,-1.3693086379841777,0.77306637102891185,2.2218763425336694,0.089377678982515196,0.66250967120746163,-0.81982718975223279,0.22488616305541134,0.69378625309176167,1.1954247675697061,0.075886377072657413,-0.43136041606647102,0.51894170896571712,-0.9725465013716923,-0.30638055575144385,1.045054599769389,2.9853429715182447,-1.0479415821635596,0.3487616261471988,-0.7393418227574986,0.21337361000931135,-0.60118751150245608,-1.6897042860016078,0.39998586889406035,-1.4620712517556673,0.019014934406597375,1.5235792495306399,0.71732358919842765,-0.1859374872865468,-0.36927379642494029,1.7336414220266017,0.010410517804796718,3.3537021360299892,0.28915333606555427,0.15940784557438048,-0.36478586433639915,1.574967832738281,-1.9667992663941185,0.88223302606907483,0.74965585766379195,-1.5517433433110872,1.171541657588705,0.66123334663409794,0.919145196016941,0.18979178949161957,-0.71082608974594097,-0.47379023468608777,-0.30427557010655326,0.37839077996269099,-1.0479701332916442,-0.62873603590169957,-0.36255203076000886,0.77995616676945756,-0.68103324035143764,1.115135075704089,0.043933637450122458,1.3262769311452001,-0.23443230262125217,-0.87135658423869833,0.67738196659392169,-1.5974871521374774,-1.353303224232796,0.99869664396029778,0.5461594891173398,-1.3736150408312433,1.3256057508278929,-2.7832926491950203,-2.0330763146093194,0.39393419287922093,-0.16672966832407612,1.2610751107017553,-1.1535526556714033,0.81270428147610441,1.0512731045278649,1.7965395514329026,0.59740690982567735,0.89642472663834982,-0.18634625422482834,-1.2628739062726657,1.7317073883344414,1.1969602301964573,0.48740408801494461,0.47073428828708802,-1.1407498482886003,-1.1356717516883548,0.9324806545608223,-1.3123162559521411,-0.21544226585245038,0.024943454691009292,1.1924780641128028,-0.82657183162222791,0.90654249420536837,2.1257254938896937,1.9484010583302098,1.8469672193847246,1.3183515885249026,-1.40411607196509,2.0915257588335781,0.38058562777993682,0.16832392370435259,0.48611746367330061,0.36212955504891886,-1.1582764563653021,0.9551617571019404,0.20787659959146834,-0.62546177345105503,1.1325336409654665,-0.97932547207793796,-0.60718061797669853,-0.89505624006902118,0.80621086152670041,-1.0840653682552261,-0.15673510132204685,0.21587697094736905,1.0266362901376291,1.0394874721657799,0.57312712491929507,0.6293022584083966,0.73779882282371367,0.38602456653738232,1.4572349922556056,0.11226735541743907,1.0085518909379139,0.027180462923071733,0.68217934593888552,1.6359562544133401,0.33150975865286492,0.9581056203778292,-0.20857837726793432,-1.3124983926508182,0.68478623275205142,-2.0741484547937965,-0.93891350945508556,0.38896717871368663,0.93159323487458146,0.58861018683592137,-1.3391790437727724,-0.54814794601847627,0.21616823692363998,0.48156961491018752,0.97654060768229978,-0.17750339166546739,0.41330191234584435,0.35795997415834924,1.0461639129705225,-0.71247876144428623,-0.51636208994544619,-1.2447076921839986,0.14221709175625166,0.2072929075654652,-1.3214665423761047,-0.9712874962915139,0.058801893511994864,1.2269854796195248,0.19098416784769284,0.43326128443412704,-0.32899316535732792,-0.66399689766434422,0.99666403550837668,-2.0757571084105391,-0.80589232435479563,0.85745265423952854,1.1550530290940431,-2.8376724476925528,0.08450794071420141,-0.80323308105099178,-1.3071355559918432,-0.10323344428684926,0.35207615047249996,-0.50144353104410888,0.42978483383984395,-0.43975024150836911,0.51599925406779479,0.19504996101175093,-1.7526392761400911,0.29347262168656185,0.18689889976919388,0.095086837895181617,-0.67450901002576746,-1.7291846101288331,-0.12140029878637883,-0.79678701694578835,0.20112675885313602,-0.71471686919380339,0.0046489881069389305,0.64769378157182433,-1.8611081945835939,-0.85157816330863656,-0.84448459866455372,1.354918211618434,0.81841477534934903,1.6675652600849811,1.5769963706693415,-0.32979477023721943,0.10674420533183646,-1.1601289523990557,-0.305810122941712,-0.28700981486907245,0.089438318538284323,1.043633041058009,0.046015460723003603,-1.060217809661715,1.8515188164219376,-1.1127961173070808,1.2662910463533616,-0.29165979576515233,0.43564900409516105,0.30361348230323792,-0.38453744272301371,0.13557287612040156,-0.15321603054763486,0.32728789684743936,-0.012087997256403415,0.32978487406400647,-1.5015713722774364,1.0658982450494445,0.40048038849250023,-0.018521439699465396,0.42694754042960309,-0.26104419908951998,-0.58733678860161043,-3.5747056474091341,-0.2953093992801275,-0.083699995017133849,0.38131397102378556,0.017735352303530266,1.4600872370938933,0.10658678574747303,0.52266863764644578,-1.5004715888299403,-0.88571606132602754,-1.7308284130996801,-0.17719473958839574,-1.2321987428683627,-0.53304693608031017,0.4316884657322092,2.2051108105839399,-0.22699017285611481,-1.2212995638816966,-0.78534902177913479,-0.3668117792076438,0.0095191021714406462,-0.23884466118752032,0.91051612905717239,0.24196782384966997,0.69309541325968005,-1.1104654268481191,-0.036802598454727838,-0.70739021655155454,1.3468855767930279,-0.27142532723398083,1.2403726841717975,-0.55883583021095751,-0.0045218475758689392,1.0271672824397013,0.038404740557129266,1.6000343055920054,1.5462395398098163,1.2295426511708878,-0.070693072352651168,-0.84515995513857067,0.10534004633280432,-0.48771928030085171,0.35854732893498908,-2.6208067975237488,0.13256752436153915,0.70545775556958323,0.41203463525386996,-0.089934134491475706,1.1248079132687068,-1.3480508613475262,-0.96176517994247868,-1.9081832947776296,1.3206954795536752,2.1519091801990045,0.77990962944050146,0.48462912021931454,0.74906839051102003,-0.93273248106689133,-1.6872787583325259,0.51613665295338651,1.2090593751721166,-1.4776210962797891,-0.41891454557779617,0.090114005582573667,0.29953518020392972,1.377591020855518,-0.43042221831232058,-0.49894297069019605,0.61684456331032111,1.1508148955180428,-1.347453042208093,-0.29184266373082834,-1.677621170305031,-0.82085238289889229,0.1786400248557973,0.62134630622459452,0.32269957790941045,-0.51389424894312896,-1.5121965139970437,-0.18705362349503332,0.052352414128070859,1.0635172198036977,1.3663807902144851,-2.0985330189934022,1.2997746674466939,0.096871919168702997,0.15994628194136817,-0.38283225899396367,-0.38068126943348574,1.5318802701927381,-1.0385432230759934,0.98964468657066496,0.20141829073669273,0.79027307585845996,-1.5349471264085386,-0.23339778869116759,0.45983038763492329,-0.70211138132471707,-0.29658852421358478,-1.5413502532879104,1.2118416580223195,0.10416426188191012,-0.81746798750554683,0.53140600208399913,-0.15721731009548362,-1.8511072504300776,-0.81800479732380804,1.6701196906545908,-0.50682443211695793,-1.6647424330400045,-2.2793450528372414,-1.3750298292120973,-0.74071548938717557,0.16916880476919383,0.58060194395367348,-1.0649787102312518,-0.62805800565340375,0.17223080697955226,-0.2766843011367171,-1.5909395383536857,-0.2672571090161055,-0.91449960637505934,-0.82456049009518573,-0.14771764068555696,-0.59728729664820934,0.7607457301467595,0.093804431268227406,-0.49645227525057722,-0.55931732389511402,-2.1490944355407517,-1.6093953424242347,-0.017295057894723846,-0.27576408136404873,0.80700205846777495,0.8958627737473096,-1.5538403994026413,-0.24259088264886794,-0.11012920258495144,0.69422980646712051,3.1608952157001196,0.24520162728851247,0.27071571687530349,-0.90795126480516863,-1.3033453878315286,0.53067611075967236,0.18158422623896484,0.058823927787335313,1.4862165515918697,1.2795323535436942,-0.77048928058977739,-1.1886082518087646,-1.4270149405292814,0.27867291539610917,-1.8015334254432505,0.079814063279740527,-0.57371929665165999,1.0722250551251389,-0.93560482858853566,-0.32851925344689215,0.69213419613910365,0.71576921114823255,-0.31686494565404,-0.71291968766916203,-0.97846699697439166,-0.63983636751868234,-2.4194059154732819,-0.91884216631505278,0.32587599014531493,0.07991297703164349,-0.050435344227242641,1.5068756687660643,-0.19345355161240288,0.14914581117770823,0.43372202942531263,-0.20219877898612801,-0.88809169516410891,-0.27297493584911509,1.2243534403517771,-0.41888380860049418,-1.3139493700967668,0.050037685723231237,-0.3393146460168685,-1.6659360974831992,0.015212735136164515,0.75757146766988404,-0.46322613924145106,-0.99630237753908868,-0.94205368126082567,1.9567476205290291,0.37277881291751463,-0.05458519987207365,-2.154492650919646,-1.3801926723024285,-1.7717202058671777,-1.0179329979420444,-0.07286826571172271,0.41865697888822256,-0.5857417506832503,-0.52610911621650536,-0.83796187609770478,0.18889558746339863,0.35953275003788771,0.31477787855010864,0.55416844116638131,0.98563504384551415,-0.7752773417731379,-0.41162186847409177,-1.1664553723112261,-0.56688602643173547,-1.0988418746602289,-1.4516970540753744,-0.8289167505811238,-0.71950359432200373,1.3518494708095343,1.7903497067217542,-1.3669346421667588,1.0491617873925509,1.2757198273771877,-0.21204485160094172,-2.2469126369948316,-0.47721840161812362,-0.91728121454891709,-1.0598256447687104,0.5321176359264369,0.61285170547504308,1.8402802222136505,1.4749985662562626,0.35576753953880524,1.2752134543059856,-0.92369106430375725,0.95797825098440437,0.33007159573824046,-0.45320418088538733,0.44532831509229892,-0.30661389669043437,0.92060960642090806,0.56647098990742351,-0.1205543987047472,1.9626048879585625,1.0491822866264264,2.0231987520513091,0.15901642507477556,-2.1295218740189448,-0.5520358724443164,-0.44766755284960014,1.5708527266096786,-0.99348497203450714,0.41671652349227745,0.19066947203839887,1.44015128123988,0.14819651665537692,1.0640440384493501,0.85758419227191729,0.93299800384505671,-1.4263670388657066,0.91533084284994704,1.3470238570716488,0.91718640512728677,0.2525248114279654,-0.99246408080433501,-1.0888402189953656,-0.44221151460775288,-1.466830158127622,-0.57433158984731547,2.1738092003476432,1.8042695193176008,-1.3698617261473844,-0.4111585779928012,-0.85213048923323986,-1.5665725355668207,-1.1529329937602097,-0.73075522845291352,-1.3777137324670541,0.50445360685285112,1.9022640464811562,-0.49437049071591904,-0.056739925980712716,-1.1218048936227349,-0.14509621412793361,-0.92490479603282238,-1.2230021892614644,-0.73788557551013845,0.077019576729754152,0.62342680008823625,-0.15396111358768999,-0.95856674215809545,-0.97535808545988545,-1.0095442336269527,-0.73012765736114271,-0.46781223549380863,0.29428648264254897,-0.77743370158895975,0.73577280440856907,-1.1527686416088334,-1.0298324596377904,0.75837143813005459,-0.81873338532494866,-1.0408503074441364,-1.1464894976626772,-0.55399264469040299,1.5228882921415345,1.4807188659253963,-2.1095365141014999,0.84726016841321738,-0.0016304442603500052,0.3706931274750157,0.31391469105676489,-0.10362112114816541,0.28349771466207169,-0.14458955567945461,1.5944573986097881,0.69242506472855814,-0.67985592637296699,-1.6979753795808905,-1.1080589057200019,-0.16851464945026415,-1.1911607465477418,0.21625750065942481,-0.043364109153962653,0.18616080562751081,0.91779423195914978,-0.096187181082424592,-1.0259981705706387,-0.87976375073657298,-0.22753421953495004,-0.20838379499734763,0.42007187744919861,-0.12329086383392732,-0.94710136303134662,-0.35929722483909471,1.7256462415812568,-0.79992188939759812,2.2052472962881877,0.73178984823555004,0.068804346024442686,0.32452186775768432,-0.7996454436850402,-0.033292483632372222,-1.0961146863701847,0.93733208295820614,-0.22914784753997436,-0.52078253884506709,-0.016183007233209836,-0.38970095929865445,-0.23579186692453136,0.40939971240077455,-0.10211934080462107,-0.71837244734348771,-1.7364028185062195,0.92286774008187999,-1.4039589055971955,-0.7490551778076433,1.9897443075784933,0.57220871768252879,0.0084120509662728819,-1.4559633372214777,0.49766893557954245,-0.061193647628738593,1.3195940237065988,-2.7024169554427742,-0.44891871123704619,-0.62881907164385276,0.36234639724921691,-2.1024821938527145,-0.85274721543986409,-0.34738308583676453,2.1993296669661002,0.43316398742341233,-1.1867857986592625,0.73504257490857006,0.25836679412038338,0.012149700080623986,-0.31776076604321701,0.71120289355313948,-1.1475905372938053,-1.1584516849614692,-1.2041633346649152,1.8226743045247566,-1.9182548963054737,0.47801369598912791,-0.78637139062773875,-1.1282638944216907,-0.05306158761487767,0.34575510869548359,1.1244456899860162,0.63088334363806486,0.40687499380982189,1.2634187944338804,0.66159884424521087,0.43144403593959652,-2.2275839793448413,0.75835388422412886,1.8995182280829754,1.4394483064767707,0.87757155415247168,0.030411184551605908,-2.5841009571676934,-0.20068124497818549,0.25809645624275845,-0.39983981806314195,-1.1074810613569541,1.0910251270916198,0.18077913070087956,-0.27684332661191963,-0.5167279642327004,-1.9369866443913728,-1.4113515788493372,-0.91530863535327078,0.33986573531673142,2.6080142858026321,-0.21968092917583676,-0.85168125916168202,0.18133517328693868,-0.47579138412684285,-0.78680643315868437,0.84387063211139535,0.88371890332618186,1.3223999635022785,0.10582254648366199,-1.2720653093405898,-0.85075323873463082,-0.047083989809420281,0.61588308918079127,0.51792286965032075,0.79526106844798583,1.0616538271107459,-0.11573588584721511,1.102217119437271,0.074762687702726358,-0.40627014537202222,0.0023562150634497598,0.33508576899893794,-0.19936915269041916,-0.51317832558478715,-1.0197588547789458,0.82104959959296187,-1.0915880536718565,0.6729769359263903,0.015143101396159691,0.39340096270267538,1.5653088830191695,2.0452887187901032,-0.47920764324111609,-0.23919430941973382,-0.14455253995362147,-0.9256623843743963,-0.16101838737023752,1.5533973984839544,-1.5428726504484813,-0.28418378640390618,-0.82258925204057054,2.4416690443052551,1.1960917462128542,-0.68739588917568062,-0.45123125965758698,-0.45026233380332303,-1.0393183286590757,-0.35536518132964373,0.50549627388615104,-0.51461081066406866,-1.0382557637040684,0.40902871408675529,0.19558179687742833,1.990651996197478,0.090219171755907102,-0.53990235382607732,0.093829765681284094,-0.044293101797920599,1.0062502870338825,-0.4774816085165467,-0.40033283056556368,-0.93014315879394194,-0.25139356324586282,0.64168225903490206,-0.59422767178362601,-0.38156803747074369,1.3520353854200806,0.88375657008914377,-0.78287962162118896,0.17900016298279145,1.3112891119842081,0.54991651865435687,1.0782168194989776,0.98859275365926491,-0.62278221240899378,3.2006577246207,1.4883695524525851,0.81911614479823658,-0.70552688766997318,0.83832889186882154,0.65703298147532185,1.4922231329733004,0.32558329185087237,-0.41190320516599738,-0.10454792932524565,-0.2423633929632151,-1.5691098631443612,0.43018485962192754,-1.4682583729907863,-0.18386493469539722,1.1530263897605972,0.036957918683324438,0.9986163020873926,0.31331602918530577,0.36392853630512489,0.25094020016229812,2.3538394644272782,1.8471038098066745,0.74281776611128181,0.21484883077895239,-0.6967712682293683,-0.80325749148912173,0.57080643151379817,1.452741673188368,-1.0846329589153803,-0.29379767689798086,1.5266181451437293,-0.013364511630852555,1.7454615051091267,0.59038117984316418,-0.60587094187066259,-2.0118206976501742,0.38826303775967774,1.545286590057684,-0.46883651945719429,1.7325250452682903,0.30135859188435649,-1.0725368448638739,1.5277177126826211,0.90852121621462023,0.099816550546602614,1.68110213715377,1.8428919739872209,0.496846401454062,0.41147995635684737,0.24008965706935079,-0.42150692093886544,0.0053298235235171125,-0.22743587179046937,0.55693907047484281,1.318320880037414,1.8739756873371938,-1.2289341514120464,-0.44459667562359645,-0.17411833394796156,-1.195727403923839,1.1647039383926185,0.57917570319261813,1.4029056335241368,0.42498727952643373,-0.60492915933746672,0.045790035908712549,-0.097489218159664964,0.34609603985715265,0.5440360987060866,-0.62352897217788761,0.13029132982005343,0.13942923610250926,-0.36572594107134548,-1.3811054647412979,0.66813635064114896,-1.580381235071701,-0.85719908857672955,-0.14247058505625196,-1.2679443874516854,0.062994458621005223,-0.5168486078765957,-0.37741414552818237,-0.21358510689081767,-0.031764645306977125,-0.091806503594850014,-1.9498840624309171,1.0209536782443258,-0.24057524055820192,1.2423792929014807,0.54015523017369593,-1.8716881921522068,-1.3996205624599807,0.35963893368524502,-1.9316813393264818,1.33135173964042,0.35334658082014353,0.60305708283155079,0.7678698908156435,0.25771325585539068,-1.6622074069850374,-2.1651440460072569,-1.3980707209231333,-1.0504648748570942,-0.33884529310328659,0.66174631345259416,-0.65556526895949241,-1.3043975753078372,0.72903875830911047,-0.25773523202517357,-0.024469782931237499,0.86672518356941397,0.87635057640888747,0.056939268451249997,0.86365711727018102,-0.14540113888234632,-0.32961562423436258,-1.904602428823309,-0.056093289101703581,0.60609950235832655,1.6314307791635372,0.92529426172078122,-1.6274298522161763,-1.1473976983246956,0.34753089946832716,0.27988755824044886,0.0060956629165571903,0.1352698925969866,-1.6273437119998575,-0.025655102047334954,-3.4868402667322869,-0.26274354055911847,-0.32402954205654766,-0.42960846715162909,-1.0275896786751961,0.39523974413982393,0.61355312769457127,0.84547516899442288,-0.082688161008350441,-1.3656758470418522,1.5298088545520838,1.2972072814695996,1.1566849849039837,0.99954924405377121,1.0624456260375543,-1.8517096466583209,0.12163595981238581,-0.88056276466162375,-0.50728514305973027,0.34794594814954571,0.42399904523942683,1.0964361189645195,2.0703540915240555,1.3264995644070994,-0.13983984826257523,0.28564219208976854,-0.88159745493067665,-0.4880667295449293,-0.55401454738156697,-0.77894256252038852,2.8767734868311039,-0.32215389612777612,-0.1841678915134039,-0.099956054246175124,-0.030190216058828621,-1.4433141390082957,-1.1273358898483059,-0.25774985379539139,-1.3591150036268116,-0.37696305035860111,0.6360365117163731,-1.4669631195842228,-1.1726507400487336,-0.36589027897710091,2.0520640860270296,0.49892172104550914,-1.6803659547608532,-0.29932113915018921,-1.802477025228806,0.80035305011600166,-0.91075946553451093,-0.5087969663401013,0.89938388536966718,-0.23740068305591999,0.083580759770604626,1.057581098491545,-0.29628701769067778,0.25779984754829927,0.19968335480201568,-0.82501340787506205,0.47322844068100228,-0.94430586392881977,0.81910976544743108,0.25417250324609658,0.61316695415147782,-1.78015803548887,1.415614863641611,-0.43694772811707694,0.87641629664930742,-0.25612356217483712,-0.11605712460446765,-0.82149912916138423,2.1106463150236339,-1.0126262932767158,-0.58607082117011244,-0.33805444792831696,1.3179120044109576,-0.36861453213741158,1.4028241012524456,1.6112497438613109,-0.95042888904259359,-0.86146928356277563,-1.0948331408321734,-0.5763479038858168,1.1513434961090068,-1.2267039104138582,1.0064462475138767,-0.30067676853393477,0.98321744460960625,0.43304913688660285,0.033801163540604084,0.14233766955023469,-0.83198712430627764,0.062889032776470385,0.24746756213994897,1.119110796166404,0.65601821878016164,2.1797476643525062,-1.2015013590720263,0.0091542570089947276,0.06410218730450104,-1.427245366957735,-1.3661484318557766,0.94294634159419755,1.2430311022403597,0.50853310176659727,-0.71022126966793753,-0.13992016768961307,-0.077709383001214563,-1.9777312231102295,-0.6637514332661727,0.95943419013770503,1.5045278147275087,-0.6563408369715793,-0.050313902490733454,-0.17663081743452738,0.24319556399821265,-1.1172887206247528,-0.24490079693094094,-1.1597481496569177,-0.32380414253803302,0.11923032792402277,-1.9663921779796378,-0.44977407307736789,0.85574438778257012,-1.2821866542997848,0.15876379197292698,-1.1914777150842286,0.30871444163786194,0.48777875387056802,1.8933293235780984,-1.1324525043986722,1.4486136757505415,0.6170850349836311,-1.0815236839998033,1.3661687598379457,-0.15035724666245337,-0.45740672851089781,2.4085103307238493,-0.91037679040343944,-0.54158965026083206,1.6997219744520793,2.2185408957779336,-0.48847295446453287,-0.10448859504126447,0.15778431602362444,-0.25312226737279209,0.44169987882958911,-0.29761094851535308,0.016928295943294466,-1.4741376144284628,0.17230639757041136,0.39703039099667314,-0.56086329900110088,-0.30571139022737193,1.4169021440941325,-1.3905694930472567,0.91324985381900403,1.0494512846185224,0.5769745518482452,0.55264173142070694,-0.079821974867002515,-0.80651822817845698,0.87028597292511944,-0.17292369631274043,-1.2733635217423771,0.8479542153844486,1.0743030039183934,1.562649951602648,-1.7183067697357211,-1.3112005151040684,0.22536938576258458,0.2975830966650595,-0.31452001473827862,-0.48187403266472523,0.24939351979762156,0.85018614359514222,1.0974249199713633,-1.5823500339256908,0.424834348768721,-0.52312860731121635,-0.15896442780320957,1.2759056486473379,-0.31933063894002228,0.82989429823939598,-1.1391453573267432,1.779407055172249,0.10772927085897027,0.74800722757879534,1.3322415842200239,-2.9916411930311066,0.52843437566660223,-0.30226808419555096,-1.171237054138814,-1.2750635615804615,-0.42576654820171,-0.95166642554644232,0.44209876695922667,0.85454553139884593,-1.8678295376941565,-0.54404337960363158,0.27909718632377367,-1.6816760315136936,0.61011046449849871,-0.15724316612925812,-0.73981032470795427,1.1341512923937886,-0.55937318102174716,0.38892959769222807,1.3582454546727214,-1.2860229966224033,1.3931870585171533,0.47771295114029189,0.7527103847023725,-1.497134771774276,0.25393159369950968,0.0092901999105680366,-0.52414726338170048,1.0129087415183153,-1.4515814514338239,1.8157139627689787,0.21486062390375549,0.44922222041015381,0.81805419309181338,-0.2975189598924517,0.75940202036775628,-0.67486059707431822,1.4918264749896328,-0.38027459498496025,2.1293579136223237,1.1523704230244987,-0.35816273576147567,-0.23143168982627574,1.8866607978339816,0.30296894367528704,-1.4731113568263383,-1.4553303433046274,1.162172756413878,-0.21714562300966225,1.4264672962936757,-1.9392415925007536,-0.049682541708050275,0.55796869639612257,1.1369603020391834,-0.077071625434454866,-0.85154560368952015,-1.3807608562075742,-0.3503727117053303,0.91090109811742992,0.082352465660795071,2.6744307419063693,0.55509913029428826,-0.39991032377999886,-0.55938729035011714,0.54301561914613783,0.47931799395958619,0.26150494943907304,0.095550330260214714,1.6677781471713244,0.56629493876625014,0.64122102430803873,0.42832250965720753,0.42853316043618028,-1.3129283819001245,0.59670045025862373,-1.4106556998412449,0.12339926784953222,-0.90077782420603336,-0.96165685940868717,0.37049936634650915,-1.108704648960571,-0.49964511928630567,0.2061229123093361,-1.2310346775162091,1.6478044650284309,-0.91374502544215919,0.84840318808482118,0.77904735015000182,0.81660549673079363,0.38801939405088981,-0.025842609020571623,1.2816888080822164,0.038276899961089426,0.48797348402289575,-0.37481177287973999,0.99960467209418613,0.067609911317040486,0.66579641450903937,-0.40714813548133177,-1.198367229321244,-1.2279166671015451,-0.49301048068046749,0.37212881514342216,0.61252604709495695,1.099281948518799,0.71435551517895535,-0.17731358790768267,-0.53865572045251686,-0.4971627110086474,0.99629877628727115,1.0667917540953527,-0.94896113022329054,-1.2492248497684879,-0.34997682645455469,0.27026342122844987,0.061179504243406159,0.022673318865809023,-1.6565306947177325,0.2752356231835284,0.56246317822275405,0.73451028305767418,1.2292324910883532,-0.85757446237136281,0.99318470430405148,-1.1340502121278393,-1.5475214216942452,-1.2067788558969614,-0.1550314043115113,1.1570775221921423,-0.6050988383204231,0.94481575635819126,-1.6438969369115439,-0.98680779973887311,0.69890053392293261,-0.49987718585325075,-0.42258076147301715,-0.61697976189602399,2.343953171971211,-1.300729157415967,-0.21156356422055178,0.59450058018059571,0.880532470601049,-1.4801169558867819,0.44000804497516288,1.6449004005425778,-0.14731384994590757,1.704996165642624,-0.19559664977024488,0.77358596147022596,-0.96344917936921493,-0.9860842696462413,-0.091921416709293144,-1.5066105638250962,-0.50831370437118328,1.9438145422893334,-0.019905822691906865,-0.75485723226112555,-0.57645615255972571,1.0093776491580018,-0.030222373399738316,0.1671514872058413,1.7033162441334992,-0.39083142351985395,0.5421383642896701,1.1579100451684645,1.4741356995872212,-1.6828989497086819,-0.7357614761305975,-1.3012227039924857,0.21184692522148887,1.771301083631031,1.3485992539495966,-0.027285666480792427,0.68512478832557511,1.039706916589745,-0.57000162514957131,-0.52537013683474387,0.27821597571980655,-0.36298845247346317,-0.6658734772421917,2.0525441276165233,2.5632563796185113,0.41921018304064234
-0.14477639794959551,-0.94444200395442901,-1.1122146115782074,1.035172379943027,0.3693118745193178,-0.42173032684947259,0.42271336254843661,-0.68910067954374687,-1.7989505986904377,0.41664828763687539,-0.10632525420917753,0.36344499466450703,0.50186590107780626,0.81143108333801772,-0.072093266152818761,1.0603400598860346,-1.0678437163873213,0.92472863724750087,-0.93183001446184854,-0.20336525445233669,0.0861917613557419,0.41311725187311621,-0.87344752781043133,-0.95310573039708824,-0.67290047683295806,2.0203092357137682,-0.27892339547868361,-0.079958250994761074,-0.54326722457476995,0.11406127354432628,0.68040870272130249,0.86795805756583133,0.64488000557381087,0.51976785744270781,1.8263801307132395,0.43253637443947918,1.1472482180405403,0.033305285048410994,-0.60577253980067669,-1.0074434733721997,-0.6889403404353277,-1.8412701220086891,-1.848703727954583,-0.0009446267051504948,-0.51881958318150312,-0.23565603078815553,-0.84347990310038057,-0.27734352173348359,0.49349761299953926,-1.0091804073340502,-1.0242378900435931,-0.15186951802479107,-1.6749791134306133,-0.95101370085965875,-0.41201191743292481,-0.84122940793617018,-2.6075150961012157,-0.050697087870368626,-1.2972595071320896,-0.13465551938168985,-0.14348415824050645,-2.1504659132425878,-0.15591843523838753,-0.90231854879804985,-1.2414140810581975,-1.9167494369801332,0.28248757255305951,-0.12901517109982238,0.97473422498412987,1.3251583477110125,-1.9003875331323088,0.2997919045392704,0.20901934771759825,1.3260465764978575,0.026984814523822294,-0.90395068418234248,-0.31544061288420777,0.76948948487862334,-0.39567780881442016,-1.1465149449360823,0.26209894724452482,-0.52620774353952215,0.74825210903830941,0.50654734457769335,1.1691780365832019,0.26542330399483588,1.624491207781406,1.8425297391953634,-1.8926740067448411,-1.0445371939666259,-0.95833225263415922,-0.010749224511489732,-0.18407572980471568,0.089317327824027001,-0.52116990817334907,1.5126822820130106,1.7047104520499796,-0.049310459125832651,0.34870333283442634,0.26245661106645507,1.1118789869101242,0.78313626437974004,0.16668255593559705,-0.29133874017631883,0.59320574172758989,-0.089704395605916948,-1.4001196337753552,-0.058763379922444348,0.28291134862986927,0.12841002939311497,0.28646530076071297,-2.0805990765094204,0.034636313508598283,0.81156913415014065,0.14554403817677491,-1.0544110688171409,1.7696415384835744,-1.7244985571479805,-0.34203864988533011,0.62281549379845214,0.40241611647636155,1.4064557964103765,-0.92145929421040895,-1.6438256514848477,-1.6292156519382828,0.18653617848255935,0.27181709037229096,-0.39257031525655567,1.6109026449304316,1.6988512441419727,0.60090000808185107,-1.0902434029419128,-1.4148802760538002,0.50382282612352114,-0.65927129256606187,0.41999333168588199,0.48425139050878591,0.48754710757742653,-0.7655583410922715,0.95037839643901889,0.17352157592573944,-0.99139200558111906,-0.60518531711961931,0.76362151992418514,0.35682397968169488,1.5408098601476934,-1.3534659314356865,0.39845465540515107,-0.98174548217678037,-0.74898310404583879,0.15517569694127398,-0.23287537579047424,-0.39217119122231181,0.092453435908738363,-0.47235297516719776,-0.51084019490826693,0.8011387667012444,0.14327609779676395,-0.27145889791601036,0.88198424814413112,0.61159116401203462,0.62915112565611897,-1.0525775127509103,0.37143194994793427,-1.4051009742468896,1.9136636556735478,1.4033753359029273,0.75089518217409834,0.4959082177857993,-0.12903966723791077,-0.34766499044265758,-0.14107393007504329,-1.1538307910715633,1.0236897164589847,-0.23184245137693216,1.7141032842423538,0.52030119851191736,-1.5339348068175012,-1.544931692675904,-0.53619030220663755,1.787363297401837,1.0874359463304588,-2.0382442026478573,-0.71219966386813383,-0.1100390989199172,1.3341142640971939,-0.11780942857264778,-0.054224169265024165,1.104330890622276,0.70396008755417927,0.83750533480496192,-0.089915536704884669,-0.88921264830735613,-1.3717333331302799,0.35141588142284563,-0.31724985353175011,-0.40252334794464473,0.54230900099890966,-1.178102034176828,0.98389677340585047,-0.92422985472192876,0.86538541102881072,0.38806968283440735,-0.082955881180900443,-0.71823681318563493,0.15037270015768298,1.4903335759984806,-0.19894836603205435,-0.64702106777182145,0.3076454166975337,-0.40129196225469049,0.082336375327812697,-2.7063351644382303,-0.9188039053250926,1.4765851961249654,-0.72601346037582803,-0.11804724761883964,0.66090716868763166,-0.95895506093901228,-2.0050512412419552,0.039931871700835647,-0.26714670605706897,-0.56559156895137996,-0.21523878373638927,0.19993496333650129,1.5136614067861247,1.2733632596902915,0.12218334099436086,0.1424036069252195,0.40468590954404854,2.5308420190298908,1.4330015708089616,-0.80301218039793953,-1.4766510363390843,-0.28891208738022883,0.33944450226231548,0.25776656857902119,0.82556650481161964,-0.87026877778852896,-1.1297708720742983,1.6479964736696813,0.79823869465475439,1.6834940770185882,-0.70170812674502892,-0.924953058755279,-0.63003977207701167,0.7912751343573462,1.3625581434220684,2.1843766609913149,0.21167073180588211,1.8181817028304375,-1.3585872633991882,0.14240839866939006,-0.51921941430159857,0.033890195992715977,0.88505878261730608,0.011193404341928876,-2.4952141665382883,1.8250778867318445,-0.036246299035259451,1.1385607584482886,0.54548256752027124,1.1262463000107428,0.62294125290104074,-0.68412781076098328,-0.98944883607982137,-1.0067295405838674,0.65653670087289862,-1.1486994130060344,-0.80035697501353353,0.39014581414855037,-1.8432595800537428,-0.7369717080784921,-1.0234410268671394,0.44296521165239039,0.27221200975433224,1.3470829116345331,0.18973256692802229,-0.68703040683333927,0.032181264354468352,-0.05143959830191229,-1.5092483937091368,0.14303745121994146,1.7100223124689911,0.12480812843004398,0.3756331577949325,-0.52472718521033501,0.264723420409338,0.77848218193216623,0.29032088709393256,1.4223373189783648,1.6778483599203986,2.0609232493748828,1.0990577838335562,0.64729644531507202,-0.92870046385808191,0.24572031623782123,0.7691343914877693,0.56889896386409344,-1.0134539876786941,-0.96912084858423664,-1.1953099729774621,-0.90459725251392964,0.58778293469149989,0.16965434309477931,0.43309363285682367,-2.0703140410143028,-0.08721015703397908,1.5646668999267617,0.7123069895910501,0.51888120635433921,0.38553101078404184,-0.0020528491727765004,-0.5526773386654994,0.28989221705546336,-1.4719512299227453,-0.84860068976465208,-0.85769271175056316,0.87548053228003342,0.80673027378730999,-0.7225865734964948,0.17063428212794565,-0.065805466886290631,0.19676540455105881,0.25091011801264412,1.2540670650171568,0.80718238927853914,0.053443472343873415,-0.75160998125538714,0.26498653007849748,-0.76191275796562996,-1.8874293343151318,-0.24171419171025882,1.9355716273336816,1.4695905974304204,0.11868228775840851,2.6158834879017658,1.1163673130629812,1.1056233429372795,1.1292141003621081,0.76954411100564091,-0.33050988174970131,-0.54253240551566617,-1.6524505611693638,-0.68291873480697907,-0.76313854775674417,0.70156873683153964,-1.1045765043027358,0.8141595523694336,-0.12158833498529553,0.59118606576418831,1.5419198262414449,0.32534509719556637,1.2134220083567189,-1.5004553732827262,0.27149439293146244,-1.2845531496084954,0.47743058679978856,1.0382715126459452,-0.16256624914585444,0.70800211045883588,1.2818887139518835,1.7270113623514454,0.53315985979543168,-0.26972626802424388,1.3883987502218278,0.25269969682569354,0.21757808141071683,-0.54364113146409709,1.3072066453989641,-0.62745275328303884,0.30127006265329775,0.74357745424114896,-1.4025136572868926,-0.75610338039133107,1.3299713099580521,0.011418282146340804,0.72036037415749421,-0.80735288768238245,-1.3118529095019495,-1.7514521043804838,-0.98034792842686447,-0.49690102663134661,0.77478966191126586,0.32688089023935535,0.50228111787510954,0.7359133153384726,-0.54017663795320203,0.30147158062922502,-0.60686266747692641,1.5670345912223103,0.98156607360311776,-0.22787321404030944,1.0132499230405412,-0.73882308337432423,1.9881597650761924,-2.1088535556363426,1.442018921674513,-0.5825579858699993,-1.0108683849131108,-0.25606647702289531,1.9474950082707141,-0.43832341258578544,1.530436044269107,1.7235014395035693,0.93545194664590481,-0.34758057218610644,0.5261372659349256,0.39006426888686307,-0.60555432071295956,-0.15260386500655421,-0.89736756980978405,-0.6272579509419135,-1.1398560557444752,0.44204278332875513,0.49904970898697648,1.389810116793595,0.5479754837405969,-0.89293771636278607,0.27508760221868378,1.5307594889037306,-1.3341717835927083,-0.27590186149666407,-1.6301771450670213,-1.860124785334343,-2.6527850152166557,0.0023845641045666288,0.53985996092218069,-0.45570921178769225,-0.044736068879612213,0.031934016946520857,0.13403381972983411,0.39492576053730583,-0.74399147053530301,1.4982539152828367,0.86765196259766086,-1.004201967955888,-1.0181698041275586,0.81704542158705629,-0.88940843786214663,1.5352359230786869,-1.092049441118605,0.63949501583108881,-0.24872797110701547,0.45046464970972627,0.40451007665732952,-1.2447344629194879,-0.21989937512535715,-0.086749938960957285,-1.3571803553262158,0.19237256419030468,-0.46351597063811217,-2.0057862685606249,-0.10932330640612495,0.93764931700086529,-0.41297634805060407,0.37915423623576339,-0.053406211868849425,-1.0531912468009572,-0.30536936360580991,0.93581734092479707,0.62400701779810219,-0.44294626915758362,-0.4374555921386673,-1.1978143407977848,-0.46740416550609959,-2.8798560790171437,0.44065803009280502,-0.53433767075335514,0.40321883338897463,-0.39584249062723426,-1.84406568793023,-0.85051482138870893,-1.7878033839423109,-0.62415091407622025,0.74972520535960341,1.5517167793943363,-0.69448728288415129,0.061624713465981494,1.3798683723917924,0.35860364882904883,-0.97275452958262065,-0.42911164389133943,-0.26477565608309189,-1.4100031949139578,0.87018705555117004,-0.15378399179980121,0.78969474735974721,1.0068518030501463,-0.177943302367078,-0.40581749409009032,0.62320112560375973,-0.97556872998967903,1.8030484249728596,-2.0064430745088688,0.30344930133934733,-1.4611363326713658,1.149774678790445,-0.46372568763904687,-1.6361376382781021,-0.15212480920820784,-0.1029026434984614,-0.69445332194362486,-0.079201083571675143,0.085710257563992281,0.34349467119920951,-1.4225217412233053,-0.090041632211934994,0.4005468878220465,-1.3175717248183196,0.048263278753187179,-0.5782930004623843,0.44973315971025057,0.10561462159706562,0.31386994470496121,1.3390825773449497,0.25602160172945898,-0.12009375652349621,-0.97122374250375909,0.45096521385398453,-1.169098489959826,-0.69863894058135911,-0.53476536297821231,-0.73084621459492116,-0.51888533864193465,0.038528305959548731,-0.7084989725601063,1.4744056771248883,0.33434500787686483,-0.50645893897034722,1.702046637785863,0.81942199978270758,0.49023930818380279,-1.1593015132870212,-0.55863604354215801,-0.14245470942530561,-0.081756557774631339,-0.5053121412600482,0.73065609917532759,-1.2308316227965581,-0.53793656978570326,1.1981667436821384,-0.3242716695652727,-0.095759548499650238,0.30992064949274478,-1.4987252386784136,-0.23175186792028038,-0.72292898434675534,0.036248060833614808,-0.11585057734226441,-1.5883393869705595,-0.94972538889207359,-1.1209706855028376,-0.59280032617311296,1.9938930817442553,1.0787894211492306,0.96438954066810556,1.0331422541663593,1.6015745745531691,-0.33103918169801466,1.2207698442042363,-1.5006883481822479,-0.26424880987678201,-0.53176919720772586,0.92899448284833075,0.71442232380764548,-0.46304402539204709,-0.8580655585144652,1.7685409455030434,0.58566865230054621,-0.21203529067626165,-0.63798069868790763,-1.5762563918528565,-1.2172213053708105,1.4207722989910383,-0.66214358053336286,0.83332366528561197,1.1523198187373813,2.8961878264872749,-0.053469301716036359,0.73017382099119821,1.8454743610136304,1.8191230698111995,-1.009758489381388,-1.1395965761343563,0.65452113553055025,0.51055548105584081,-0.95526907441877784,-0.69959565050758854,-0.65391787271576374,0.17134354456267142,0.19072615997890402,0.33634469567194658,1.2870278881117416,-0.5547322426474135,0.0040740737365913219,-0.075619324091196649,0.56333581659071219,0.668757805777631,-0.72997852057581447,-0.75553996180148375,0.6142921212185849,-0.63027825363471113,-1.5113264629113652,0.54429809381965577,0.16928097477245369,-1.2563535103228278,0.23083889862507265,-3.166274771018124,0.50367987842975914,-0.82494754363557965,0.12348339146520715,2.5790567312293531,0.56597567515576708,0.84441688968537665,1.5121997250642529,0.55996531786484849,0.17988542813219865,0.92095341389869445,2.2735854388313417,-0.7698038584325253,0.63882446595589659,1.1788706663696538,-1.4455189156593806,1.3182416703535311,-0.75190145096543837,-0.12793220338528413,-0.97772550235783673,1.059037044370569,-0.41388772082861003,-1.9386079934145786,-0.042868819960128701,-1.2810288096651079,1.6182194331722839,0.8082630386637305,0.11028373775129449,-0.41099559279030856,-0.44067087828892909,-0.79024877300216534,1.6859975566927707,0.15579720792456161,0.16704379947403963,1.1425754527682224,0.017280690254684813,0.28652648035836142,-0.93211928099544639,1.1694924310743355,0.41263743582810791,-2.1804469945048321,-2.2406460612648851,0.90611809804684507,-2.2379126911556253,-0.5605281363609157,-0.53661781437028477,0.73344979197735027,0.1996112127716681,-0.17238333342048764,-0.30804052917648173,0.31068572278696244,-0.23543477773978808,-0.25296948752906212,1.5245691558167955,1.0373745210213983,0.48857649349937038,0.72109301326994213,0.78965779961046623,0.24675428824319137,-0.90036879839768125,-0.12806617327083528,0.70862013415943337,-1.0541497997759874,-0.87034673297125653,0.44554690994539736,1.5024261883594283,0.97597867655606241,-0.71722383734283424,-0.21085726646261388,0.036516916580359701,-1.2486286476727111,1.3662962167962178,2.0253384567718431,1.6343617357605105,-2.6730053683784649,0.98577543631165354,1.2698625131010393,0.99278985683556864,0.17482649222492463,0.71564805383709262,1.2261132331031399,0.79646692891067061,0.57256294099798466,0.55139984603473347,0.78867598313741927,1.2545471991925392,-0.2765126902420183,-0.25718304156676869,0.79770989483224752,-0.63046651875820381,-0.86748344089072238,0.39165130245389973,0.26062415019515028,0.89083459536576437,0.34846394399421926,0.90477812450445283,0.30134174755765464,-1.3424628455838479,0.046425341689468123,0.48500140228269817,0.9483205771109704,-1.851440336109861,2.5940307464684631,-0.0067034488412387495,-0.62933634012989315,-1.1441137354051547,-0.67153083651287904,0.12574517863354992,0.24473697418473153,-0.1212759869093292,0.51157131269799472,-2.4419399256778438,-1.1996293666549938,0.71850557934680104,-0.72894743811442819,0.15715986232282042,-0.80918898165457642,1.6046833437646986,0.23937636980742114,-0.23613072260954593,0.47982046946021062,-1.5952601076939468,-1.8984345883143048,-0.057609717422151291,1.1708152057011578,-1.0480679117854625,1.0164966367230037,1.7488758037313765,0.41750298674840813,-0.24727640168073334,-0.068469977876312885,0.536909896981552,1.6792098606997972,0.10793962936477638,0.33499861175366591,-1.6250095956315025,-0.37841410905020212,0.38202273069642545,-0.38713573923653738,0.0023808937963276508,-0.57205754521074237,0.17029083683747212,-0.22809015049878031,-0.059614654854959391,0.028863385213325168,-0.64958658827634397,1.2119560090245609,1.6415322154726839,-0.63625512098934989,1.9379866400647552,0.26311803178029669,2.8665300824002413,-1.670569161149853,-0.77353741343595761,-0.60583937788701892,-1.324918003281589,0.59975160776925951,-0.52042193234519496,-1.6899626974041815,1.2255025376081572,-0.47122362150717312,-0.5632928867910072,-0.10018065046343431,-0.22363777760262901,-0.55828470360578919,-1.3934168819826298,1.6673023127450599,-0.32916614387168192,-0.28032063653688177,-0.19991729055804275,-0.72824439426378418,1.1790422235411584,0.67869688946508133,1.5988527485179027,-0.65109657589989078,-0.57736414313632201,-0.25948542807920305,1.2050722639835938,0.083444448589712061,-0.43454381680186877,0.28655189486247046,0.36105137237577367,-1.0399330784642202,-0.45722773077299383,-1.5394060475521016,0.12768583451528689,1.3775402402251071,-1.3964352881707742,0.053465767620344481,-2.0932141178525816,-0.10278167397229371,-0.59195570128571362,-1.1822272439579273,0.47066056949321344,0.59002637062799967,0.88109532683556457,0.94566100389176289,0.54856439303831306,-0.74471264768590295,-0.64856213700825072,0.51021178176790905,-0.073292027841913202,-2.1034678209311957,0.74321926856302067,0.72536291373784834,-0.31446329654042571,-0.81822021799986189,-0.65246954627138642,-0.41011348020761929,1.0971852394452326,-0.040589881654300705,0.67559433186560147,-0.77340406688656194,-0.24555460936159515,-0.63531329280149362,0.00044398948196239512,0.40554797076758697,0.25733859145531024,-1.2430054516050852,-0.34422728378676937,-0.087614558293447109,0.60403893528716235,-0.36955122292932036,-0.56843980542496753,-0.9777635482839343,0.59661283229632911,-1.3611503601393682,0.49767884316565214,2.5446774381858654,0.6567714618467051,1.0176553826830315,-0.54029160280913802,0.72164631797060141,-2.2711047678860936,0.24210286618896959,-1.2877075072017163,-1.6343042928011271,-0.84839845104149614,-2.1202882691562133,-0.89001472154642591,1.8233162108111347,0.43033273047997928,1.4691824533829849,-0.45345361167388526,1.4012148084482714,2.0815806119479308,-0.53113198983762344,1.509435212346141,1.5272766652936203,-1.7429596799615399,0.73320871391498232,-0.12888779059047903,-1.9978220715173129,0.77466055153263147,-2.5294827463364489,-0.36262135644387622,0.83029158408959858,-0.31094244567374352,2.2797379950249335,0.79080356073172386,0.33801256654982959,0.65568692315733246,-0.092526348003232131,-0.17467667564944442,0.47585529558667577,0.73806905455632943,0.51878512413404876,0.67197225587119236,-0.25860352736280418,-0.60474209588074357,1.556763799096837,0.64590839029896574,-0.063570972751801291,1.0152396564547717,-0.12705010372006539,0.39617552615264195,-0.51568261458006048,-1.1760974903455712,-0.31684305353776165,-0.14024313956948958,-0.95547031113877479,0.12479580089644041,0.748970954591482,-0.13589231296441867,0.46842160894347018,-2.789677646553181,-0.22393680399308824,0.52587095547117502,-0.46651687268065128,-0.39058069468864315,-1.0924564295740631,0.034503172885591557,0.81119412801066382,0.8581424927225898,-0.62109764167006998,-0.62426318347385312,0.09588808899514141,0.63707209383556473,0.92712031397045036,-1.0381736936179338,0.1460376594569332,-0.91610806267978229,-0.092781498890238734,-0.44761129716425957,-0.056678138397970028,1.3443947526076681,1.2649923538986423,-0.78422866047942463,1.3672772880453845,0.77669750573311658,0.34685335639382908,1.1198907042078865,0.88822121314332314,-1.9166666419257796,-0.32100512837764561,0.91324849390912943,1.0875009570041176,-0.17438793999836955,0.22445280777000884,-1.6217311802882823,-1.0407324522800989,0.79730121757906136,0.26718604332723817,0.13590341983628459,-0.82562450292500789,-1.1685243092665674,2.0182809233939416,1.1514860388881294,0.29401686622964079,1.3353590295474569,-0.16073457407306593,1.7534728516874105,-0.58109591831487273,-0.3784764486166492,2.1668728004295166,0.46633445218416836,-0.51981506461313076,-1.1305736756002518,0.0017330545019159551,-0.36041632972230403,-0.25090394126846455,-1.3710962078969191,-0.67959949177251255,-1.1168672541892051,1.2477950755998799,1.0567599357902595,1.5696170680473884,-0.35075035215387046,0.73481659076466443,-0.83380804639362394,-0.68888422288587914,-0.17493217418654436,0.34676567484336568,-1.158779956156295,-0.14881813206939404,0.43420087856101902,-0.79538645190228519,0.48837182550273484,0.55663730979030812,-0.32785912228041442,-0.27042304921716204,0.46461503194960502,0.25317920307901876,0.61955308843378143,1.4287953647391474,-1.2685670587159086,0.57854575826583632,0.69334091933374342,0.92958588686964283,0.79563248255963348,1.2147520695444285,1.2925511159561909,-1.2942174651712899,-0.22543112981830227,0.93903003152312414,1.1785960565203277,-0.12913394281232238,-0.3738553994917338,1.2284698168919075,0.60757256448878916,1.1353877050058487,-0.15161779543826609,-0.59926572619241125,0.38990299579448501,-0.57863229635567004,0.55713463072032943,-0.49238597043449994,0.25959591565730372,-0.25046756075624466,-1.1716866453823023,-0.005197722926232929,0.043902141128446259,-0.26978711301997949,-0.59860559087094178,-0.89562969121180336,-1.5894916758968141,-0.19099231909868725,1.0088121380951862,-1.2707974826489949,-0.10151147726937894,0.97842008091180799,1.3425713431518231,0.57116721753406641,-0.40523156362483065,-0.31513483838292899,-0.12821599342056375,-0.76979480502567732,-1.0286986806123306,-1.130500889704277,-1.2064698475336064,-1.1685606264986963,-0.58613532211979724,1.1654275492928357,-0.69169418232462976,0.28384412983762769,-0.07468922833605475,-0.68230370626390102,0.86591342098581414,-2.1277050246697895,0.69976611490358753,0.63815372850931396,0.52146557982036568,-0.099710530196219518,-0.35153566917441414,-1.458356108600863,-0.84350718975226613,0.25560854031449026,0.42518268050270386,-1.8782571430761166,-0.16561305886624317,0.43818753161762886,-0.37077470104052063,2.1057551596732105,-1.3422546754563374,-0.86473299959805672,-0.59922118173194816,-0.69347574468017148,2.5378741070481032,-0.33655690555849366,0.81511454943926509,-0.63599347371665227,-1.1864764979927143,0.051529905511906345,0.090122098121994038,-0.50647170697384591,-0.17379415978810378,0.70995919652352413,0.88661313933451846,-1.3382210402679335,-0.60078657129103141,0.9275319144586226,0.1621913934040467,1.1516646836307003,-1.1483672679738044,-1.2464599502210847,-0.51818505200337428,0.035736294007738222,-0.9862505337054166,-1.1638255448199168,-0.85306631376148123,0.66883308760913296,0.033844729091932736,0.37239051065944728,-0.94745895490202658,0.14084311684097267,0.73361810029278818,0.37189956368540816,1.3626234302162887,-0.81085946900634776,-0.29031191311032589,-1.1768855319550511,0.55983575742374392,0.23785734186373586,0.11261799383478656,-1.5986791928193111,1.7456947154385447,0.34798047063939136,-0.75733590046654342,-1.3352182783934008,-0.5015840197448771,0.11643665878282099,0.47195942200768354,-0.11684386708761398,0.24610580864597764,-0.69357906012472559,0.79742063823161624,0.42781198036144236,-0.37210819562390351,0.76540533006807798,2.8978548999342602,1.8823790232951525,-0.24967039759338702,0.99625907426401217,-0.42323247597314939,-0.51379957822419398,0.33669991458511095,-0.74061873419496937,2.299893929389631,0.5113496170642341,-0.60287582927714933,0.82914187805097306,0.14066348260488293,-1.1846051076961328,0.057181731587857915,-0.53296693700572562,-0.05723554096484295,0.56846474166246785,0.011440752233693846,-0.065141326390987492,-0.59997225195353632,1.3408392049453315,0.44615110204295583,0.30184514516965028,0.54752028544772535,-1.2787554955862073,-0.22013496324420892,1.4793382924379284,0.71019239955022184,0.68660531542857006,-0.3253768590433323,1.4367996275337436,-1.0293838392017203,0.14452701903738552,-0.50671335555636143,0.5289994088420279,-0.38628734375186552,-0.62307723042924834,-0.15326040454537801,1.5012380208983926,-0.034869759278614146,-0.60715736745171411,2.113691975026156,0.62054725913369579,0.13190812622710582,0.27726048965584271,1.1095373263827268,-1.5172393842848655,0.43165319823321863,1.1366081536928676,0.35827414207788566,-0.40930279876155273,-0.81326533532123835,-0.58643646053336362,-1.4058840696615358,-1.2913810909785848,0.462561224991903,1.364842339419819,-1.0280399815740335,0.78485735192314521,-0.87153215040933207,0.68989939384049404,-1.3945382578977692,0.9377349264431375,1.0476021977764536,-0.48340089708465228,-0.66888966802519212,-0.019654136314804834,1.2068717658432455,0.20760014281703343,1.6536087990571779,-0.054937531919835976,0.55995581293887842,-0.24904030227938126,-0.12575234601137969,2.3425034025045233,-0.44338386602119401,1.57638766896589,-0.17353213694176511,-0.60799533818451335,0.88007254450821648,0.022159084072509567,-0.10287363486128803,0.80413378131812863,-1.5095435897161966,-0.97071178505622024,0.038881956497403898,1.5988714756647446,-0.23045780707374688,0.51996358232359929,1.3726590582322169,0.90864569790330374,1.7372942771213007,-0.84872139646850309,0.46773041539870797,0.44669409945085287,1.5741085416499447,-0.32179497753288461,2.2746750651067811,-0.6724784365392622,-0.058836824770322808,0.31857908814160318,0.62058751003185586,1.1805627660882538,1.5626566192393083,-0.63785803145629605,-1.5418768327480989,-1.708072305876478,-0.43737115304452107,-0.076163931476571675,-0.79278740920464352,-1.3426143559741366,-0.051824313348795566,-1.1057638818609756,-0.042809987157749453,-1.726510955363054,-1.592197891635647,-0.36232485440761419,0.68776781161471845,-0.685386193457863,2.3401549118836842,-1.3667747896513518,0.3887467271535856,0.01621269979660471,0.99922513912559596,0.61533905987106297,-0.077261608003689961,-0.84145485237892426,0.1213491753015829,-1.5375013610530397,-1.8120708711757156,1.1603704281666951,-1.0563655192246684,-0.15762728988889468,-0.59383199536573394,-0.23041724571448435,1.4102022938567049,-0.79729855483483558,0.58048498864685683,0.86935229518916179,-0.84614397458752022,-0.69277161285320021,-1.292103769292297,-0.073278891441552488,-0.25972084441358068,0.41671963482518642,0.06958146221687854,1.3797029560787539,1.8879784037789953,-0.51840322127405092,-0.061073372148037264,-1.3596827739350812,-0.40509208724771739,-1.29431599294817,0.48412361222870109,1.567287372175022,-1.0191678738764753,-1.1822474943189241,-0.70837791675582973,0.31091999124263969,-0.10618734796659821,0.50201361105893205,1.2881639189578138,-0.34544748736152336,1.8553666393924735,-0.87370430829504475,-0.18042205234129072,2.0933676086270161,-1.3520395954933737,-1.3091897925788081,1.3999676351184323,0.23688468348674349,0.34450617158627678,-0.12529892351474956,-1.413574375846699,-0.14550506696453921,-0.73315336714790613,-1.0339110801509992,-0.81803373745247965,-0.71041377029506259,1.0769523110211943,-0.66330720872021676,-1.4678768487875766,0.60407098463842102,0.64431377144411783,-0.020031339093981578,-1.2827109419041245,0.80251858479911953,-0.80732067135170815,0.19673213668248843,-0.93234160998653892,1.4152466436760367,0.11594230995127199,-0.41398509802531674,1.0657215072346455,0.80116550418623422,1.218862899197352,0.33558571384971048,0.012457267626129961,-0.44069997394435773,0.98472807733288337,0.04079016982239312,0.9665277951433402,1.7868708652722225,1.0183148619565554,-1.6711624388437205,-1.3414730686736582,-1.1566082095242274,-1.2337307059823839,1.4348682079925901,-1.6978709957868769,1.9793287496856693,-0.78727209822060595,-1.1989502696970291,-0.96148079386983853,-0.81407224673086265,1.0670169523379529,-0.72824701208374865,0.24334650819755446,0.78587934350389321,1.3957442308649133,-0.035448083376992942,2.3402338253064294,-0.5054913019965982,-0.7074113431480693,0.72830966129223618,1.5300762016162928,-0.24300928459811796,0.51627106876941209,0.13841610279484892,0.76933569165182492,-0.95565124998623663,0.96460550133647927,-2.1212914342988829,0.45344098716530251,-0.57889471912145263,-1.2576533341961231,-0.038510657635613128,-0.64024111972887754,-1.6697447440607045,0.60128130721473516,0.60025202095849028,1.3326163528847095,-1.7371859855547949,-0.59464861118973156,0.76895778656593472,1.4798996523217212,0.064308582923816276,0.71884836624381154,-0.82164842848794883,0.29300316530522996,-1.2895256242100297,-0.88491726399473769,-1.4797734481622207,-0.48178722413866748,0.49070699804638096,0.32237720208861426,-0.62406736673286201,1.1537104769143887,1.2577483684648358,0.6552611476891167,-0.57774074794002439,0.61510203283279985,-0.50193704307318221,-2.2716063665817483,-0.901458196133201,1.8159191711125753,1.7638179258420958,0.49435970370830751,-1.2784953086511717,-1.1328561960544081,-0.086976439983395354,0.96177431178117145,0.56921325200499839,1.3274540184746639,0.20770086314449565,0.83137635820324673,0.61814279123630433,0.66692410381563039,-0.22201493851686327,1.4740733756222897,0.068866361950858393,0.91251193603806757,-1.63645480823649,0.015596711835415037,1.2169338863907662,1.3902306694970261,-0.33486046496979288,-1.8156071312237529,-2.2973576973156113,-0.0017902780557656859,1.0806259300392196,0.66605278444858718,0.23791635880775261,0.6335536585080106,-2.0858697221183187,1.7483927064340141,-1.6265806363859019,-0.27084732736359418,-2.2764741922203591,-0.5629245895631666,1.7914850338145147,0.72185180128443893,-0.31575168086485306,-0.79268377695215686,0.50185402851540928,0.023934207619198244,0.49448768213539573,-0.071333983829069636,-0.52904361651830267,-0.42798909105563288,0.037461420475017521,-0.55587527880886334,-0.81863382425578479,-0.74196375121996583,-0.2519996999553944,-1.5122142720045333,0.64218333013034157,-0.39229223822659509,-0.96185694691035017,1.4258368953698402,1.2996654078501992,0.069303183677089569,-1.6292927372082391,-0.65689580026236938,2.647539342031727,-0.59245184141447937,0.62275747392676273,0.5687866577520343,1.6637266009475806,-1.7332573333520058,0.13522262254468609,0.6243830328601645,1.1176052182867608,0.063623703124450148,2.2919667363000169,-0.12447525252821551,0.13989445418301166,0.91193140279074492,-0.77362798215697737,0.31053510311188737,-0.6758567625554277,2.3716688643005801,0.57525070148326285,1.7891895249821297,-1.4034784212561922,-0.44815662815578527,0.30511796364982607,-0.45861870480907529,0.1304678827212469,0.74267166002498053,1.5261704095241513,0.15811168003088263,0.73036536513916572,1.6064032467742,-0.063590654889216822,-1.7113087250766872,0.39279911875090923,0.0061388439308882612,0.66388589070536275,-1.2116838519308131,0.7043281599757143,-1.2639644658945601,1.1346541180362091,-0.086035259298357702,0.87929482732426145,-1.0064478734113818,-1.0474255844007627,-0.32363887253448981,0.25139287325549664,0.38691781203169123,-1.1194072610147352,-0.77405440074497456,0.64384024512151317,-0.075835630801796644,-0.36346914247657236,-1.0851783817205647,1.4577226196978834,-0.41706390521710696,0.99973537662260048,-0.41591342612846111,-1.1283257477320587,-0.20428887071999416,0.013485211690986793,-1.5251601453194488,-1.416563779331645,-0.32056203050619669,1.766868550963256,0.56030986634822266,0.84598779507487876,0.5421311393689886,-2.4196721849919425,1.1175125172672378,-0.36548745456116066,-0.60590333940463259,-0.20635845957852869,0.70220424189933228,-0.76077442124885197,-0.12074677225057275,0.20511059597766415,0.78552406082800819,0.60159412619673325,0.2400588374001458,1.0825129804216724,-1.1235907080604226,-0.93126862970849944,-0.34370103103011101,-0.73046990676957546,-0.7141874836926132,-0.22141867618235153,2.1119200200690851,0.18852825018926889,0.57672197359681809,-0.57277658071256277,0.21985694363120376,-0.64837235383060099,-0.39008220600100491,-0.093611102763335979,0.06551631920904781,-2.6386866222490766,-0.285483065958615,2.1044357281682804,0.43168388199068958,1.4111186104988429,-1.4621398762229045,-1.6172695108964323,0.11486588347085437,-0.33820798260956159,0.83617534434053475,1.5296139206689365,-1.0022221269547884,-1.4823694483174648,-0.28160823775152699,0.24627404980172246,2.2497769798500808,-0.88977072554446313,1.4897870425907274,-0.433897986274206,-0.65511856325250728,-0.26758441203679656,0.083585319922658607,0.31286413613177794,0.87530002494824888,-0.62881119623600723,-0.73433642736072291,-0.94070993963086613,-0.032867760782953781,-2.047659972271294,0.43736375402053951,-1.1921653678978925,-0.18855267524542108,0.31862665956851255,0.27634754869406652,1.0150794383845707,-0.47145673632086277,0.014479869948970542,0.089147177224416077,-0.75250032010919976,-0.13634078767436636,-1.1306068360419648,1.3808216101303208,1.69745709169202,0.93595878265418886,2.2289577504605118,0.35060648606630351,-0.0057213532892441618,-0.10287782407559813,-0.94427532471799525,1.1871701078906098,0.19110298816594973,1.3247416093082285,-2.2406404559394515,-0.32720100227461146,0.31832530269528614,-0.35282859919963655,0.88817208727507635,0.10045605615447738,2.1872788828348377,-0.63710060500142907,-1.6979071133101711,0.26140726518962093,-2.0750298080927401,-0.56169513599008225,-0.65532332604676646,-0.83830109652132745,-0.3960920288251441,-0.078695671195996811,-0.13712733174839747,-1.1919170366922496,1.362801109004278,-0.75713056577903659,-1.5386990056029399,-0.65328325223968464,1.4479022277405349,1.023722198402417,0.21160655654493446,-0.33359015361760058,-0.14801410730343953,0.89127801442688248,-0.88258855387364743,0.72335141248781598,-1.7490324105128257,0.51805500244513381,0.52198737227565095,0.63434394136573424,0.38216618295256916,0.357999114705009,-0.72854695698950045,1.5309407883929136,-1.5932321554874185,-0.64379631233902246,-0.080537853913036195,-0.58284501788095056,-1.7180624801750497,-1.5242387502801493,-0.46523069321974331,0.91337902099257029,-1.0778810601056223,1.4723454311129798,0.85512408817510155,-0.59699692618658862,-0.44200305389996608,-0.48165059000513089,-0.91516598060035736,-1.3621957204901429,-0.44650889008319566,1.5289271725597051,-1.1265673385429655,0.29466103680706801,0.04837624480180551,0.23324990903799792,-1.2109502957083342,1.1384865082453914,0.69727508174221087,1.1065223761648468,-1.2041845388616732,-0.56303228487103885,-1.4695690872697462,-0.11961647406137994,-1.3459434205296648,0.032131221182659736,0.14289702903736989,-0.56780100247825471,0.42925018043122953,2.2323795078077318,-1.0620276056771609,0.67132525918584363,2.3367129104823023,-0.62618517563458509,1.7528610532694731,-0.2228118642151212,0.31157217965265638,-0.92240978264169671,0.74840985069880128,-0.10215719423782092,-0.43023688698958445,0.040424132439923974,-0.89768599139371752,0.55670187406148064,-1.0015370701410877,0.72726983741516604,-0.5709442501622668,-0.2729332282776688,0.55036905371303724,2.1201700395375105,-0.19671014425579036,0.68344090376265543,1.6452002605836686,0.15375377872684276,0.59935844726300547,0.92068672676345398,-0.22635913691545442,0.27593029522306772,-0.68681301051252974,-0.76509755545494773,-1.3786931711501114,0.63342539340419179,-0.59031695539944495,-0.26059733623369175,1.8501871167202073,-0.49312040453650419,-0.44135619216104083,1.1813275533663845,0.20364644075892771,-1.1911706105116611,0.66500009951328143,0.44758076353454207,-0.74941316339666364,0.99970992311493467,0.5637581011274615,-0.68342038917209125,1.772360885135932,-1.4660282336471964,-1.415095429144942,-1.169696743792715,1.754500766292598,0.2028549555698726,1.054225757888869,0.20438525768950452,-0.28579780507044711,0.27421462600242152,0.47659125736591179,0.83161550067728152,1.5070291738894586,2.592160776618849,1.0198911471599366,0.61112130189870761,-0.60431092281525356,-0.89637573966631223,-0.49549586380270955,0.8794806851563155,-0.16872081358682445,-1.6522845404874806,-1.1994364688994865,-1.1402000380820068,-0.9816628974492394,1.5745154801542995,-0.070637619318071845,-0.8601290724051972,0.14004815260155373,1.4157700335666885,2.0080478996810149,-0.20973092304673921,1.8799333911043914,0.59648005513714819,1.2803241068103086,0.32886039630104297,0.17425150753347124,-0.14587484978636905,-0.10252911093620716,-0.20715400216353674,-1.2284511074004696,-0.74323272482282254,-0.94989186565381001,-0.84986891684073129,1.0873166507179057,-1.3065443430747317,1.3722265466587769,-0.3171375232705797,0.24704242005857763,0.20978623439412469,0.69561091226774974,0.82268123799493553,-2.3324917254280031,0.296027994944075,-0.66748487172003401,0.093429762703581928,-0.87937974416582765,0.30833681770186455,1.6073903973350447,1.1833797096099767,-0.68380836908616616,-0.55829027043112955,1.2725621360206569,-0.16826510499518779,-0.42316767904116298,-0.19153086866883173,-0.56989892794002184,0.3661099121738402,-0.31995394372478975,0.29453454443893606,-0.64436683127339989,-0.9028519350344768,0.45548692152891879,-0.30018904167354216,-0.70766079605828824,1.2887670106343057,-0.34515282301270489,-0.095560214998547957,-1.0348869112396732,0.45412925634149487,-0.069937417557700249,-0.83620676576545883,0.62812322884944327,-0.093438813689292924,1.9186443639110864,-2.2190399379826382,0.028554217578031563,0.22455022018241122,0.22645009995748949,-0.33000629775923973,-0.93842729548811543,-0.76410932873987836,1.8003353308006269,1.9800284261888104,-0.0006155204365952808,0.20155636672344224,0.37370548402945047,-0.22143484375840231,-0.17277825101449742,0.97862887890222283,-1.5991018018401693,1.1267191610789091,0.72874320333347009,-1.449102227071573,-2.0489034780142661,-0.64539604663308681,1.5951912099066754,-0.14379633897136695,0.24549570221700248,-0.87520656266011199,-0.4361173100913886,1.2196767628214205,0.70275023260269287,0.98713291418183968,0.45290292779139624,0.10647418294983002,-1.3696289422621579,-0.044602579888202057,-0.6938459442018361,1.367817002690167,1.9786367749302989,-0.51620738168532865,0.98569051899174442,0.16782576127639245,-1.3749363614991776,1.3548132097238044,0.42860524023988583,0.4551429342140117,-0.54902742881760402,0.36351647266331366,-0.82625611033960733,-0.052134288058371551,0.28627003594120309,0.65102856013586941,-0.77262697391472057,-1.0069278161621265,0.30598002404055458,-1.4292816702917497,1.4199023661765828,0.25630579757078525,-0.33206685155596499,1.6351271459887589,0.53550058160000091,-0.96452882936973583,-0.86805240639722026,-0.044055387037384798,0.5092394038612108,0.033140960879340604,-0.25948113263872985,-0.41042060939338371,0.026116606853739562,0.11676958522055492,-0.10543823069426586,0.6312115966227102,-1.46077157293485,0.80193513080481982,1.3009649067069058,-1.3371549966349108,0.10105506868953665,-1.1811352593167612,0.76864148959319845,-0.87879706416307501,-1.4825527913191423,-1.084243989298401,1.199433236251267,-0.92911794261633263,-0.14911477441124757,0.9482878695945296,0.67605682314218229,-0.035269698934135764,-0.49882528347130928,-0.7821150075679475,-1.3207248842787618,0.13229873348756171,-0.46715760245833199,-0.63683898991009558,1.6735657483703366,1.0593168578578516,-0.80435681799870729,-0.42812988458342222,0.73409472521167374,-1.4038260341929687,-0.1334299457213847,-0.56566966407776553,-1.0913981094241667,-0.037940358240617353,-0.607846667858984,0.55184263609903961,-1.2060816677240969,-0.59738168205901176,-1.5335420661853905,-0.52640869701721726,0.98427640054557985,-0.29116822085222993,-0.15450261359012604,1.0912924470324628,0.58172440247557611,1.0925092498632372,0.0095423795318302501,1.259654306432493,0.69360606171871875,-1.7542092913240048,1.4926344240933522,0.22825181057169278,0.9229101633375022,-2.3464565219126725,0.88885261788709913,-2.6615948965699707,1.8573791112587676,0.90763077936678127,-1.0630670369486288,0.82918474836553246,-0.40861308229459592,-0.6332866504663287,0.92762134465630142,1.3909286157021552,0.99993932423357446,-1.2642798899319589,-0.26635522410612206,0.94803521853987027,-0.37204095210605953,-0.92951772093730123,-0.41151264907023444,0.77532924599608355,-0.028257392361605457,-0.28274180580245184,0.52688200262314977,1.3609377081676868,-0.054236739438012306,0.098878272018524685,0.32079810962811839,-0.92426173889142882,-0.72876842726857016,-0.20681665568195368,-0.8820400278471594,-0.87482099337326169,0.97277728121639451,-0.28913227889784787,0.79733669473268831,1.2215734912356639,0.27396446251787349,2.0207894892006655,-0.12033644600916682,0.76420966688458081,-0.56620491271860141,1.6705002651447547,-0.50157800829914279,-1.0074334531717801,-1.0991414813926355,-0.29702018968588589,0.99222028979709131,0.75782249353286346,0.19557267326989336,-0.55576750528376984,-1.078003087650653,-1.2248596335248818,1.4729902233126666,-1.9698647002511596,-0.62088314007960932,0.406508797931798,0.50247085275725878,0.32846052708289292,1.3481079260300137,-1.5081246313809122,1.7918163156791806,-0.6678632651522215,0.0013392923741158596,-1.5606529560186233,-0.90177247389002091,-0.29597789477217379,-0.044606775312358196,0.089666743671800817,0.86989832475771989,-0.12655620804421111,0.78936289547638172,1.1540887120649819,-0.77948589364555454,-1.0917064945363162,-1.7820290530676319,0.98136055234008857,-0.78997506579213106,-0.67780621149890963,0.077154793766290294,-0.20617655866382273,1.07576978826456,1.085388962755055,1.8695444654916851,-0.43821771481961053,0.53170675609957674,0.26828195626281204,0.55121710369800614,-1.0320969032249474,-1.0161584609703396,1.4789470598409333,0.4867584837537009,0.17678048924951117,0.17106918350636874,1.6020924696226819,-1.0099875015652597,0.69856517297760901,1.7579896378309663,-0.56382312115306021,0.4719966777712632,-0.029111913668533461,0.63081743398121704,-1.2945005490423018,1.3738415565216968,1.1815670551018567,-0.96305232635174109,-0.3499873309040557,-1.1911804942434265,-1.2392719155197969,-1.2608536770359338,-0.13767784113193093,-1.7616595796159427,-0.043417625713846796,0.38056890381029557,-1.1976715371647035,0.034372973686045048,0.37410955049110661,-0.62197781300944222,2.7745680075624808,-2.6395824144144324,-0.16718476476657468,0.77017479047557991,-0.51080794886561387,-1.1531631706759669,-0.1256465113134243,-0.90903215135572846,0.74290648759090139,-0.020566586733617231,0.58354039625176513,0.15141654280085462,0.68646048671793258,0.13468553565053412,-0.6933681079907571,2.1746053967922516,-1.4173576351526684,0.23999425160318896,-0.083023149853527545,-1.5323494351112272,-1.356284755805552,1.0757904234051938,0.087201552807054453,-0.9395791028554259,-0.10298708078230065,-0.98090876854786868,-1.5525931103348296,0.47335756477168861,-0.5592956851392703,-0.70154364663845248,1.4377071075988279,-0.87858278160381575,-0.065208981715317624,0.75035258774962321,-0.79038149335691399,1.1973965585444339,1.1506174366474471,1.9389408802865118,-0.57196581120419543,-0.21615992781334856,0.05362799456553629,0.10448690097571196,-0.28251129769322714,1.2853572697965554,-0.38097047591833999,-0.42373205947487685,-1.8537527914426648,-0.26284274966940746,-0.30018437321421204,0.32098046832420013,0.11365217226347872,0.021948562598542515,-0.16947587546249793,0.47231182102339447,-1.1542107650834414,-0.70582714722417228,0.43487875365027662,0.43560354783671218,-1.2417913300895229,-0.93927193008770249,1.118138893144655,-1.3213451112031469,0.17208816649582742,-1.4678499203215132,-0.54483885781562769,1.4695369214467557,-1.3997916457031279,-0.59100583578550925,0.47575285555266406,0.81524447165232439,1.2983338797735418,-0.96491498965930989,0.20189579098887006,-0.22818039464848391,-0.046077969891365318,0.22453001149555346,-0.84181867420698953,-0.96853968762533948,-0.25234494235591154,0.7937526726255838,-0.99392645770081378,0.50873439151542721,-1.8471095586004083,0.37248540340434688,-1.9458667399576965,-1.0764283666574319,-0.43622293572000087,-0.87038513185350075,0.92295795602356168,-0.28061402214091924,0.38686738706369367,-3.603982750963227,0.13133971994897647,-0.12855769992894345,0.60382700280148505,0.10646719090790925,-0.0049412813809081493,-0.65760208454954061,-0.19024392169940166,2.2449829518656208,-1.2732784478146779,0.27403436844665946,0.22241422116580287,-0.32029413901664688,2.1151029460358473,0.085941411502572229,0.74552973374282006,-1.979025482865969,-0.11751920923808166,-0.94840253949939735,0.81935516504028272,0.70369925515927623,0.70591908309490903,-1.2024330445022862,2.2697335158868555,-0.96752741560297029,-1.1184188446231145,-1.062149161902973,0.47327726454901475,-1.3225333301859643,1.2060701193009182,1.1060778177224464,-0.078072867380784478,-0.94601083978677802,0.54185915990307021,-0.97180961027095059,0.40825772561421225,2.2833127042921215,0.91193523200064075,-1.6712599880268095,-0.73361696352605099,-2.1939615923759868,1.2735122003699277,-2.2286763595947439,1.3590096056049559,0.098902895957812598,0.54522918400345388,0.44931432612313155,0.46192156895970904,-0.04107773416343917,0.30222071976107068,-0.1394517415843296,0.72241010485063739,1.7554161818682248,-0.21399200179296787,0.20177599690788317,-1.0314572747973465,1.5923451043501939,0.77538664505921873,0.42079530352512101,-1.3364209332760191,1.1473213333822689,0.4989289118383271,0.53868634486501465,0.58787044626210638,0.10915645118526894,0.012894913810996996,-0.41047622130777445,0.17016494391793252,1.7056564716429852,1.9288799875852873,-0.416309684069254,0.59618616951201076,-1.5367119433334224,0.083188239327490726,-1.7206373408185291,0.031140542273547286,0.17481231839524872,0.048547275555252303,1.0776137172814297,0.75501874282109771,0.36075509091930419,0.38769256231831345,-0.11056526959416242,0.6486239191827432,0.32664276946651466,-0.72759668018949342,-0.15300335581249946,-1.8762443006661034,-0.47849364736318883,0.36096322282129428,0.37050160886240097,-0.090179404139836078,-0.050368756970425317,0.57601754336307309,-0.023397334118864969,0.16806158054526776,0.38812183149090579,1.7386171587252341,-2.0851844194735887,-0.42999919225895511,-1.3077225110681252,-1.0295378067797951,-0.039752800273349397,-0.73526309239476539,-0.061604802752012723,-1.9305307295965513,0.48068227351562698,1.079115993932201,-1.857628506573185,2.4262962993838846,-0.39564896980037167,0.20061710237247174,-0.94802026222354596,0.75802552162010883,-0.78567658690527953,0.60075456995715515,-0.35100140053851658,0.66869367796955437,-0.1305504344754928,1.1027946742367549,-0.22314356180741679,-0.0043210939415714066,1.1782588510992196,-1.1684266261288396,-0.1621131357559738,0.43720362704604709,-0.3744619279683048,0.2753274901778745,-0.9636822696025017,-2.8410417245621673,0.21128413943829252,-2.2341354461631777,-1.620561451678854,-0.071826469829759071,-2.5036166694920783,-1.9850104934493569,1.3449184771146254,-0.49650937596989347,-1.5355692708472453,-2.7659935887212721,-0.7705415706465456,-2.0776808665208195,-0.089780385679199132,1.4338488365773512,-0.63008736887468153,-0.90659067864697163,-0.84897208331770924,0.15307374899886783,-0.53571112010035338,-2.3559828919182806,-0.53849498620738878,0.69292760615023696,-1.4167731290636332,-2.1867479292956058,0.79355705327848636,1.418197839652761,0.086449907286421449,-0.58844826894540958,1.0966740983134475,-0.3913360441791886,0.13416596821150314,0.22677540439756017,0.54518558756493485,0.4572331545802904,0.26644721114992892,0.014058425755398197,0.4485198609236849,-1.2728694138934922,-0.1927979036682223,-0.50468517945979019,-2.7420865391888496,1.1183954664350024,1.1953851698658085,1.4719410154183243,1.3875240183166491,-0.42638252230985985,1.3666782455624735,0.27338137795231937,0.52697475730615961,0.70545084135537273,0.051344581612276931,-1.9554191645998185,-0.86740297721457471,0.67538460817498236,-1.2707127922074544,-0.8108082139310705,0.15066078441320338,1.3387749588854923,-0.16538783554016123,-1.164069121087395,-1.3240715049980645,-0.17423085953233433,0.092870001284598089,-1.096124261307952,-0.20291323695255342,-0.61247562778389231,-0.13634048677792071,-0.08117097429854285,0.75277723679136166,-1.0280970395297611,-0.68576840086681623,-0.8198703787460635,-0.97522126175575718,1.3675960515094303,0.048413499851317862,0.14222573249405374,-0.082777284626630102,0.6753541779883705,0.97102102276332325,0.060912645137637424,1.3274060243696524,0.69496760020918069,-1.1690395783932934,-0.6019594244227866,0.094141904733425541,-1.4616434854194715,0.61241216220115602,1.5467969210344932,0.76080065677175368,0.43771805825882543,-0.50148636376379641,-1.0282218487849815,1.6222412457105477,-1.2985318297928068,-1.2352709860670676,2.6963089065304264,0.18357174227036793,-0.35373332210112129,-0.3923809584278064,-0.33798694261847284,-0.6750411583147693,-1.1206398893324674,0.50838675254062959,-0.02772432670235872,0.48687722890545504,0.69865078523394386,0.76839350678655116,-0.81668019702887074,1.2046728640205537,-2.0586596098767389,-1.2505668806997536,0.81972847503551993,-0.14763819404453488,0.098725532702999191,-0.71144043367458787,-0.92011616092437643,-0.28717226980697674,-1.6041982512344028,0.070860571446353895,0.125946982545633,2.1590795377298351,0.41587831942353332,0.92022716595351195,-0.15718276697958666,0.26726835029999757,-0.35839287315681251,-0.37597748973239481,-0.37963654788577483,-1.7562812345034617,0.37431814619500203,0.21878617358076913,-1.2300433269167537,0.40994492229648682,0.6790427852438301,-0.17526716588516997,1.8691060634004972,1.0322193452266213,1.007363847534275,0.19147904016312517,-0.22141239653744393,-1.583688854525473,0.076090280062098739,-1.6373765155595934,-1.9407914463484703,2.4280493218978818,2.8920712157368031,0.21560786885139535,0.80973959521823513,0.29330746142040232,0.26645389351293197,-0.42443252414087146,0.32542055659586389,0.35683039277499501,-0.70957454510750784,-0.10229664699635985,-0.54688508287439819,-1.0792576313069728,-0.15057772366541369,0.82599768592281542,-0.83915414810971134,0.80236524976982515,0.33631154636562721,-3.4592637866127895,-0.72577230243260737,0.16286309926075326,-0.084378511069479287,1.2066627425502425,0.073759283611933874,-0.091674647041530388,-0.61665745117455328,1.3867742095233964,0.89063838290276631,1.536864693074756,0.15912465826188044,0.68474460031278972,0.60418799331401774,0.96356616526400396,-1.0094255623909558,-1.2818682530300767,0.27490813289522742,-0.39733667295638858,0.04382294782815753,-1.4033600402536204,0.77545889518830535,1.1475514209482127,-0.54822254194710573,-1.6396831208599953,0.66419567905466648,0.55472143823979225,-1.2858353063123074,-0.40603138557411345,-1.429752299119226,1.0548035373732063,-1.0000381078461786,0.9110608276613108,1.015619805556699,-0.89603440884639263,-0.73607486942715683,-0.037472360390174646,1.0284246661544603,2.392068284643821,-0.86602984990338616,1.8900538338148822,-1.5225733385651119,-1.8526116117488325,-0.29582093779071872,-0.3519458530816858,0.188230814709998,-0.63026156730018779,0.41236496575522652,-1.0261565335345459,1.0599613825756309,0.92606090452245715,0.53101713631322545,-1.0430364164073747,-1.0093427751306179,0.65362475095500572,1.8831356972337179,0.63701772513200849,-1.103428545959076,-0.69420662145203615,-1.6933099561852401,0.51249318098512209,0.23434431761360475,0.018745689812745367,0.97648119413754653,-0.78795859780298583,-0.87549883380470639,1.3174516853581324,-1.1194190319002708,0.9551257357207098,1.0475863645475731,-1.3513896614385668,-0.015574235695812967,-2.0863498472028685,-1.3721774318869489,0.65468113186517118,0.33980472381806359,-0.20542645223690745,0.05203570224163425,1.4477297227435102,1.0023390389155824,0.41299772277083485,1.3355355298126845,-1.2663341664211269,-1.8067345877803167,-2.331418754402951,0.26629833282782489,-0.47315960593214923,0.81417898400838429,0.36085092110014455,-0.91117167202326033,-0.37168067110516306,-1.3398291428845057,0.4467798795525873,1.1535679730035238,-1.2119507516523325,-2.0459932609828484,0.22932176885073977,0.1366323995488373,-0.0082556725645262872,0.080836888237184129,-1.321854952303166,-0.081403688458407147,-0.78405662568469259,0.090104222097664707,0.56264032562132715,-1.0673209541537434,-0.44211522065994069,0.15757991687585904
