-2.3557424344293745,-0.93647331467602501,0.33679422461181491,-0.1520689760963056,1.944937070784162,-1.3163080387613308,0.20493579209047416,1.7806365393671693,1.9346994100421586,-0.35586328524760164,1.3407540667490159,1.3695266030160227,0.42882186878430367,1.6258029297571419,-0.90393010210119351,0.32039084091974207,0.65587431339875601,-0.15788073250668522,0.39604228070489567,0.00156565308474742,0.55506680615062498,0.10033322943224039,-0.78572981658303398,-0.48611287701636036,0.12935231807580258,-0.66770628407033505,-1.0957168131701658,-1.5175839715973194,0.51848338692006546,0.59261756310282176,2.2074805049233475,0.45974679838096771,-0.61197008715433976,0.43636402405913088,0.75812010721332079,0.29755337917687674,-0.99203306130303048,-1.0673913345319743,-0.36572715939919942,0.56872239674208047,0.14253296426304124,1.0862672638981861,-1.1550021491132114,0.37679601486699643,-1.2985061286151489,-0.095629553283972477,-2.2259860334173736,0.83678908581738742,-1.1391058948340944,-1.2846981820727743,-0.21207630868909721,1.2440329024474786,-0.63331521633495136,1.646300969116663,1.1841804606918569,-0.48991070491249811,0.32512832316884382,-1.389022387696675,-1.427621298800422,-0.40753370970661057,0.33159142811210923,2.365186681901442,-0.62964999498547414,1.5884840805945826,0.28037571419239571,0.164170068524361,-0.43406723147154713,0.71152002801888325,0.073953065499482287,1.6801191099958408,0.38045949022159031,-0.48667327747520978,0.87478942399469084,-0.2998042342975869,0.87592078350220548,-1.8317997962995898,0.8473960568395289,-0.91342404424055434,1.934560650369892,-0.91266218612610328,2.0339123555745031,0.039968767895073351,1.2768207269138319,0.8318864393666624,-1.0054371765352206,-0.27541641774755626,1.426702817050914,-1.3362322860241209,0.5506076874134691,-2.0676474375008507,-0.65361938990838375,1.5443393347170393,-0.099307133133813522,-0.90498161877917116,-1.2395098756283462,-0.5702785532939858,0.57567955639100066,0.40392515830786824,-0.49804183445118377,0.097862803356642214,-0.80403101444408676,0.63125965785290206,0.97411087135924734,-0.44723017095533651,-1.4029946430226778,-0.67671064047413432,0.63366594320696312,1.1401340246822118,1.9110528257357193,-0.51940599254385378,-0.39647686802003484,-0.64780823837886892,1.6991359893299693,0.4657593709878538,0.0096984819019712964,1.4088310886976878,0.64876638825114508,-1.6939237576314181,0.2058570896631588,0.64236279245431283,1.2589176782332632,2.4552407135127483,0.47833900229879678,0.58374563621379483,0.93308459111617914,0.92573399161796166,-1.3129167939423547,0.72558327706671288,-0.56472602641960457,-0.83599420760546295,0.18491501346058783,-0.66393473936332259,1.0015572474833838,0.51329613125292584,0.84821532413149336,-0.92340056626587841,-0.099868070115194094,3.053995838462189,0.94733915634505683,-0.94245178812477304,-0.81925827112455252,1.1673656915238342,-1.4534507431790225,-1.8858860384755283,-1.8208326503055934,1.7761375346016459,2.0786745189561961,-1.0741400645651908,1.4086244303675997,-1.5638595390959378,1.7522977007145337,-2.0525624645328149,0.13448504506217504,0.36622365622123176,-0.66267074229633671,0.25162719554920898,-0.5598422040911919,2.0837804386728962,-0.96112535159554313,0.48427759440076251,0.017400657418764631,-1.2438559986012192,-0.33126353717497153,0.62946014180960985,1.820188414549222,0.33525980556356233,-0.98010674500904271,0.40901863239089847,-0.46563298538529613,-0.38993624497812723,0.4860248568275306,0.67258412931493938,-0.4973936175285153,-1.2163798083360937,0.48482003075971308,0.080874148766264933,-1.7408891638655812,1.3940197311984104,-0.90146721265540763,2.1280404406584603,1.0521220471936357,-0.24819113228481396,1.4063933976336487,-0.43870902397161288,-0.41419310742104709,1.3071395646612911,0.90334799397838439,-0.59113617178562816,1.1622215992901843,-0.32911319062355243,0.10680175340696822,1.0920947633217022,1.2620934561932655,1.3219608104899168,1.1694434540250604,0.70414856071580156,0.16772388957779105,-2.8912703470930019,0.49661770909400399,-0.12093003992705276,1.010001208652316,-0.8486521273012424,-1.0079276144646334,-0.31208175244740388,-0.18000230907927078,-0.62331450488788409,-0.33526445850829678,-0.57671017400192159,-0.52202041820592116,0.77405323664347059,1.5389286635949466,0.017156472418120877,-0.34797008105424565,0.42312722657441026,-2.796413466294025,0.38617001015705799,-0.55274236183558423,0.39403384406387709,0.18402315688801857,1.6796757948626211,1.1466628389041642,0.28089501354800572,-2.7756428700263913,-1.694783149666079,0.35587642505308137,3.3118215818463428,-0.44804024861991121,-0.10066790515228274,-0.55674989717031587,0.61651923888345672,1.3395464299763,-1.6479307853653953,1.867337023188308,0.9363824462600564,-0.136851693842375,-0.35433698036693501,1.2996020440244727,-1.0050012007165743,2.6809162967066538,0.089629541772190138,-0.02506448845716162,-1.0157631334439179,-0.38148267860343316,-1.6564259511832198,1.0990568901234943,2.0774490888256354,-0.31157874795772444,0.7205286547017371,0.56567802659399713,2.1252455708692537,-0.91387178107821931,1.3207543960372827,-0.64436179254891246,0.7922278745960859,0.46799778878427845,0.018364817997046215,1.1459353746019503,-1.6441707717782903,-0.041585310297600243,-0.27624270157895187,-0.1003271017876733,-0.51130001470092556,-2.9917735232479332,1.0267479477582542,-0.12342092253054962,-0.40169989438778281,1.3786623981459163,-0.81287921706770161,0.70214025076496167,0.70370900138531667,-0.17937769776677542,0.74852819370290335,1.8400646219857502,-0.22220956861277408,-1.5026767348756507,0.18038117109651552,-0.55060131460264516,-0.69558101301575648,1.5057953927315768,-1.8442115775203309,1.0992967164084777,0.013778782510354108,-1.6093117567909438,-0.47866137614283283,-0.19130398529500092,0.2123142623213061,-0.17890879169365348,0.90947451079683406,0.86987084910655788,0.79151536304477899,0.5272665918426267,-2.1426603494143044,0.80806828715511236,-0.91997792498759534,-2.2658462157669987,0.37648948287602257,2.0574572874461685,-2.0521909043731181,-0.66965501385532544,-0.6518034659468368,-0.24544044763840259,-1.3074665641816687,-1.1184766633292473,-1.4670804109117781,-2.2728849747651432,1.693681690615777,1.0184144252631668,1.7274207953049112,0.26256455623436659,1.0494614113183345,-0.72575547628113823,0.77414536323877026,0.39014765735093615,-0.023560080747617815,-0.17389088964373128,0.6371212207117446,-0.34126615822910966,-0.0022566533255007981,2.5439061924157214,0.032825576812324612,0.27803722834706451,0.31173434868599442,1.0384593453385846,1.2032734458427254,0.31173204128084342,0.44972782865883892,1.8466828620038702,0.18043892419089017,0.37142621851924185,-1.8046006831096537,0.54178453884759581,1.6081960672057649,-0.018605080625953903,1.3305429197982261,-2.2084951001852224,-3.6254688551742817,-0.48388937958233214,0.57054127516899322,0.37448598276148126,1.4891583468585528,1.2045632610682242,-1.177350747189059,-0.98263273289157638,-0.51429648581663501,-0.25320289931697432,1.2592551424771861,0.87431728517339358,0.83602157582400438,2.1263041576020698,-1.0841120898967689,1.7992622955674431,-0.90471637065325206,-0.82214090189951727,1.0580340721140087,0.90601209485734435,0.97204761930320305,-1.2445554879881333,0.49471557801383359,-1.9302389222672052,-0.03258269002116683,-0.83837453953873364,1.4952960656518228,0.12674143959557385,0.90869139963578938,-0.5267934694774542,0.17647156581692311,0.64501328623023768,-0.47481590211361252,-0.19279935034664045,0.49521099687994341,-0.39314740233218731,-1.0406628225249235,0.47358687370062458,-0.2083110704544025,1.7543910786033625,1.0429001534808986,-0.92391548739103069,-0.43164691330882282,0.17353253441179303,0.28843637448935078,-0.11566415702614706,0.25131477275191311,0.64040708512302846,0.98120555919377406,-0.29431511590287845,-0.098425967940008199,-0.81633038782721612,-0.07661360815850693,0.28345601415285726,-0.92847585396505627,-0.03257770897926502,-0.85025071626310866,0.38137624336345466,0.20918866538697617,-0.48311415083730253,1.100010661045042,1.2078265287270511,2.7771574914887287,1.5447992468339549,0.42072952624002585,1.0656462089813148,0.19143182468315786,0.36062197312795247,-0.72996630573339027,-0.22747358278858762,-0.35910252589214975,1.1565354360713791,-0.70149071129435892,0.08374547327426668,0.59330619036521348,-1.0409165487584455,-0.066563511797569946,0.018853527650180106,-0.35313875485056406,1.1852837036214328,0.85757899413335148,1.4139130702841234,1.3509939724016735,1.0251657392601146,0.8793211077118922,0.78692725944549147,0.53865016844629277,-0.19888942332897397,0.73882198736322857,-0.30433634024143524,-0.85106428631297304,0.0042310197315492126,0.0052191510394594244,0.58218230359157985,-0.30406734552981973,1.9003192993106355,-0.76899655951017676,-1.9578736220453916,1.3684970581191978,0.1411866871082702,-0.50771192330658599,1.9502739350318237,-0.019351455894740053,0.074574015819557221,2.0803212390956181,-0.74348039424687928,-1.2386003463087856,-0.57293996327501984,-0.31568135857261198,0.32211325949092284,0.15837883453334828,-1.333106659322794,-0.011489674526482785,-1.2353488146227776,-1.1793364360941001,-1.113176818856408,1.8684345800055413,-0.92049201218193166,-0.99647299906463949,0.88092983702951622,0.13698397431209905,0.27273280548613327,-1.4045305418431744,0.041084170995587685,-1.2950505456613799,0.11367797317864843,0.51108539484592375,-0.73281288691223778,-0.40398338836109537,0.88605788175451949,-0.9516912146355726,-0.98570253965624488,-0.26885914463621402,0.036528530288847984,-1.0084350586913673,0.38895322128907028,0.14635633503937942,-2.048657911108374,1.2903766225065372,0.063766265825722437,0.70532886977479081,1.6804471596075761,1.079677957319775,-0.26581751917956065,-0.80316436254074053,0.36101301687715648,-0.96684045624554404,0.28238679563419544,0.94903008513120857,1.7125729410192361,0.77761893212466549,2.347970317168564,-0.017327207174262272,0.47309863990816148,0.86645177088912273,-0.81465416620475783,0.71336491977835959,-1.5511215914006544,1.2010811136466173,1.235683065234445,1.1973344647455486,-0.38262581839373405,-0.63445692443343094,-1.1209366346544336,1.0846983367487688
-0.31949729484969486,-0.42512913343641928,-0.39420413441563185,-1.3845046220506856,-0.45447727948461941,-0.72365030444262257,-1.0383393523556304,0.17036452926994272,-0.12672485503701647,0.74800841435702015,0.41813048593730923,0.040924463430551346,0.060155473897794791,0.86964791251706286,-0.3250709969461808,1.3426850380426083,-0.0083117923619462006,0.91305007651383019,0.67829604369483532,1.0733014214694427,-0.344885413722125,-0.21159997601259173,-1.2623597733295004,0.73778388088244429,1.9643173677949914,1.2583884848616149,1.0109288924212425,-1.5892406084055233,0.39514989966016889,0.0068200782573669396,-0.0070375971774964755,0.28670940918471793,-0.31088491296135901,-0.85480326134723306,0.17023843611935305,-0.052155231422006065,0.87948420355532497,-0.51799829888404625,0.009016702865311612,0.84705372302398751,-0.70193963437137941,0.12654512682581273,-0.81849534152270143,0.18587445792148885,1.1653598068760387,-0.13394393248728592,1.7175793777883996,0.010926510967476329,-0.95652880049492006,-1.3259963267127348,0.39680333736629186,0.059120223680730416,-0.34575336729823414,0.29594732883693359,-1.8025320272463683,1.4086688736485857,0.57291917253297076,0.60418638847677197,-0.99209419965376089,-0.76792412642234964,-2.5559154812080802,-0.13155678311870367,-0.17543258461225533,-0.48844687941688614,1.4166762772068677,-1.9905662595091644,-1.3996816226682605,-0.64975673922773025,0.68552965905595542,0.029210234906323629,-0.096881673157051401,-1.4454943347381199,-1.0750202125942185,0.24270663938260731,1.4538036006906991,-0.20705864896652246,1.332937102315598,0.45160302931144158,0.20322131939957741,-1.1346277823328437,0.1696354632276369,-0.1007398923549214,0.78487864274478458,1.5271750827365052,0.43544997861417201,-0.39601555632788893,0.98928325118234817,-0.46407935177926624,2.0292952965773572,-0.37506961044172388,-0.43241894068819153,0.24127672121251834,0.037123997755934043,0.63096635727524897,0.036382549245679706,-0.092453547710424147,-0.3688734798532638,1.0214914036293488,0.97749108535086338,-0.34852145141140289,-1.2868080737470877,-1.5408972690848786,-0.014290511712415561,-0.20820028073304969,0.20702686438741641,-2.6900705808574039,-1.4759693603624719,-0.96710229003090675,-0.81774295083301707,0.22755901248180591,-0.20283667575659861,-0.91025192898193641,-1.2641524994648339,0.86880828439384949,0.18099193747573913,0.52488879942958444,0.026071704015924891,1.4551072506955114,-0.54919590957990339,2.4719323961629303,-0.62911091129313734,-0.37979260535953596,-1.2831886478584456,-0.12486992756635626,-1.3078493991552573,-0.42896851069361608,0.82993362852057295,-0.43030556421960903,-0.67031226343383776,0.069482046097489869,1.0923524810048755,-0.36686006031766327,-0.84445125457401649,2.0108249712786965,0.79166586313684262,-0.40719936767001141,-1.6731190872166819,-0.90183693492679762,0.10135002969195314,-2.0217717829504656,0.43888317795894055,1.5643363093556659,0.55056132993917473,0.34616822397457414,0.51787147132273492,0.10026956273095643,-0.64432341957003991,-2.0019530509293455,0.47776316428611904,2.0183592341817906,-1.3206033851225008,-0.63805399394308038,-1.7050011169446837,-0.97266242531049674,-0.87737674455871673,0.77973835018538817,-0.0093652364689648052,-0.099734734705805517,-1.0267354208935502,0.99759627005166285,-0.81719892728457211,0.18559357657337666,-2.7393621987370769,-0.82847321675541197,-1.5470073648715728,-0.41995416765015331,0.10646389127819969,-0.92235579401139811,0.50178596935675213,-1.3983189312856081,-1.293424536924396,-0.73055183332172358,-0.68230027628360335,0.17808597319610972,0.48789839848161842,-0.25695544247690794,1.0970570864097862,-0.33826606606662435,0.42045092034163073,0.31725193847338745,-0.5702844333007151,0.25049876818900541,2.0376001632328675,-0.05865404566494687,0.43312800512022503,0.16762051854808097,0.13699848331088596,-0.67106645607451432,1.6904327543057116,0.8886270835587966,0.0097178009344523787,-0.52968303364395541,0.93314948872352688,-1.2482692028682265,-0.14092119132309605,0.57226117995036818,0.14733067375063344,0.67252169291015595,-0.034303921412916265,1.6583015568776582,0.48373762339035487,-0.41555014969643772,-1.0134147190373286,-0.2708118143095084,0.82761551683365031,-0.12161259662817428,0.51554057791172825,0.16589383719298789,0.33972867688880082,2.0887228013370445,0.35693571982592831,-0.79168226326250035,0.38625375473245471,0.91561912317196736,-0.85435961512432346,-0.081863743907512262,-0.097877925415908826,0.65760219651468954,-0.20633822256279752,-0.21031796859511251,-0.80919823004196234,0.72627167374849233,0.34294602674443009,-0.38791745967871721,-1.8715044508245575,-1.1754448476285271,0.39941025555342136,0.084804572330528807,0.50077302930283629,-1.096472625085444,0.86660863767874519,-0.34964272733750967,0.49508362310356058,-0.58314227908683869,-0.80074110694831602,-1.4554571365953124,0.65190763500939009,0.85717600167196328,0.79484560290035888,-1.3142449867001833,-0.79083158403984954,0.56622078203344683,-0.54662356807112533,0.52425650733964224,-0.0035810294423466202,0.42432316416299415,-0.46528925399092885,0.018453763367132534,-1.0400946567260589,0.14318837075851909,-0.78473000274643856,-0.76289333416968641,0.68225248115450132,-0.029746178453829986,-0.54261890572946381,1.5928839169407611,1.4641043932457154,-1.8665111414166586,-0.86383653403815297,0.51650062012715126,1.1571805112942348,-0.47245607247986204,3.1051440444831377,-1.2395282300311121,1.0030907752918417,0.87178948857430361,1.7263838734130041,1.7505015649987457,-0.70915218247981893,-0.0060859719026829569,-0.079450477937356545,-0.035166556851649551,2.1974290018889979,-0.19249172035186923,-0.36879289244193014,1.4793387072823385,0.89847342921359319,1.7396233915332537,-0.50945255183083871,0.67312448631603206,0.4737740792245077,0.22349882638248181,0.13604930392323852,0.69838577778027555,0.091846798772953681,-0.98535808254340596,0.48883672665561051,-0.09970782319264021,0.016331955046830993,0.1222704442339074,-0.93564480146718199,-1.8013837440159615,0.93034407781229467,1.0468884501147582,-1.2496527029312827,-1.0106986263501283,-0.65220277144359207,-0.4879444488744395,2.2320701308184789,1.2307951228268637,1.2723685111620626,-0.094294861248520601,-0.10110932691965276,0.14597093180938842,0.36933704604328688,-1.2576296046989894,0.45606106271800517,1.6140022424023848,0.10818479908885217,-1.4165615911567619,0.45438853043903998,0.77247635528884306,-0.46340106028741118,-0.87586402396258578,-1.6441327777000081,0.21079971015559656,-0.8192215477720145,1.052624834418308,-0.45574050854679182,-1.5337487002652777,1.4270735659870195,-1.8744809222781122,-0.78005699866328437,-1.3936052846465961,0.12393620333963828,-1.4533093984232386,-0.63101186212796523,-0.13754711730176572,-1.2609151381315755,-0.62704575937643159,1.289901782802366,1.3337574504883973,-0.76311904058651725,0.2460116117124144,-1.2161836419848169,-1.1280988187134666,0.4548241834278674,-0.16513424931840376,0.10367016439397102,-1.2049085248638747,-0.19672240717940961,-0.44748263207090655,0.59730965311617978,-1.0898738846098308,2.2873475182610514,1.635130469697363,0.58963816749088716,-0.47975776125546499,-0.48403691768517582,0.3165419220345454,-1.2854642383831643,-2.4153164501205726,-0.90684615574107719,0.95355772013396278,1.4512541279390805,0.98024099325258052,-0.56212505192070983,1.0095203429847852,0.88454937558455804,1.1893691161703426,-1.3779208442141246,-0.51866715610417535,0.31082167040117886,0.22750250128718227,-1.5323436198794766,-1.4686694368719433,-0.61606674350641011,-0.59842912210857213,0.36909720261860235,-0.091433187795551166,0.4808104031369681,0.5757517330310955,-0.39634757613954169,1.8569622848411542,-0.9551055125111485,0.41816539169304751,1.2187701820507468,0.16709236238800082,-0.7677927637326416,-0.29754282246541286,0.44292966921400712,0.64915830625104276,-0.93336278569232323,-2.7772921553021157,0.95789866276109048,-1.6933898441454751,0.4813279438301527,0.088032346291387481,-0.61658143165051205,-0.22883159333961597,0.069879719671305018,0.35486795927112025,-2.2548278030418616,0.00081735749800152001,0.66757045979448326,1.716892513611862,-1.3108301132795519,1.4955925138393233,0.45839651307415735,1.2047397280545802,-0.24343340244212147,1.0358366521249507,0.41617407502331377,-2.0469708645388227,-0.26830195123316691,0.13372018067603986,1.19984481227364,-0.44121853570450276,-1.4706246562893008,0.19673814094244232,-0.039443280246822816,-1.9517239382453917,2.5415820565454399,0.11844393361839262,1.3032698358335435,-0.028117678320667038,-0.61067299735345126,-0.70527472257671375,-0.0083100043643259368,0.42103626855384607,-0.78851220572196778,1.3225864883503442,0.53793210903330035,-0.53227878426244801,0.36432539155351268,-0.99302932734427163,2.1063774896121048,-1.5118660926407819,1.2224162294781491,-0.1878312532218781,0.30474563258964699,-1.821188792079375,0.68487491469619244,-0.89580222157931955,0.77021545825762638,-0.53437323265755532,0.82193574599130337,-1.7468811996662603,-1.0645874692218358,0.65586534947371777,-1.8190617172205703,-0.0081813004159501778,1.4649716070760905,0.71610233017565172,0.080411622986753806,0.19806045692551955,-1.3159685764962465,0.31921077119999358,-0.15810063801265073,1.4394004064313255,-0.59343982648222304,-1.5883156263419993,1.1307825024724856,-0.2732001155169545,-0.032474631565710559,-1.2829468662292034,-0.036656466165700799,-2.3540149445404097,-0.50962460358026507,0.84881896650441191,-0.84889920558405207,0.29518771443457409,1.1163770467699827,0.14331846532737183,-1.3545937768340712,-1.4471213153672533,0.10673809936897072,0.5083502576680361,2.0122626084915898,0.62827195209499276,0.52161204640637393,0.45754774333461923,-1.2673828790251827,0.86071700725916866,0.79295896560614665,0.36648056336449897,0.44320166525073462,0.3988589509659225,1.4640479781637179,-0.75734347624656329,-0.9384524763628983,-0.1702985961677223,-1.1962594527646597,0.0206667286684055,1.4394936490544976,-1.2526470449021321,0.28334280119284816,2.2054932307570261,-1.1158324206574763,0.64485693348215389,-0.68094202032937334,-0.59103759663312683,-1.4520385995579346,-1.2810361831533774,1.148501912413241,-0.48465737492256983,-0.75372259085242366,-0.85463207178225287,-1.0374186895904633,1.1665775803959624
1.3311217043592922,0.30383603648113738,-1.4014988372027408,-0.46156743655154853,0.92738309107991435,1.2786693688851591,-0.30900897649874276,-0.42272704457299776,-0.53973780786581615,-1.7670836964926977,0.19945017890272193,-0.088099439972962865,0.90087215393241171,-2.0673956742045356,-0.2578421771139941,-1.4738608047297495,-2.0273355088105367,-1.6281692184680001,-0.2154387805502411,-0.96196911840603005,-0.12936276252033088,-0.84227033355754721,0.22229988902024467,0.63883428921201535,0.85139107746533249,-0.47897775693426148,-2.5312794454378365,-0.47141380826257384,1.4896367771614389,0.54239156974943104,-0.1789654163465807,0.27290814435301269,-0.4040280318702516,-0.87126517637656886,-1.2321908491963669,0.25010468797282837,0.64991834034807494,-0.16725732639230756,-1.2356737529566395,-0.92781043632302096,0.13739885564942098,-0.20349581759099772,-0.0058955907017263854,0.39411040202199688,2.2202620415077114,-0.25031722585656363,1.115453329046143,0.22869832610685722,0.94048425092600074,0.86186939172573374,-1.2648992851827503,-0.18959932061120829,-1.524834138652154,-0.67217099248473311,0.47490601381315656,0.44665038147100822,3.2261382157174339,0.095430678877177294,0.047505753484397353,0.055721708988572864,0.4302616635902563,0.065676588653835757,-0.23838819278882245,0.28212544216158492,1.4743517111459841,-0.32965305458246869,-1.7595865130185158,-0.39368778007327448,-0.32735586551888296,3.3138817223281696,-0.12487955892988029,-0.50866862750928632,0.42412935276139879,0.99322347050491855,0.96658040134834255,-2.1114033201732259,1.8648837906252307,-2.0000812045837231,-0.35412770666321397,2.0686828145260168,-0.95501512171702874,1.0792655841757506,0.46286099276564757,0.24581024394530596,1.5188575411451513,1.4372142675542856,-0.28368674715809533,-0.21112557527606846,-0.84710910317171517,-1.4741084848931505,-1.110393811157546,2.4395349112767812,-2.7545101847368803,0.066273172456823931,-1.2288169606685506,-0.012322825934406926,-0.42507619972648636,0.097649039292904971,-0.23777442920780348,1.9990901122409153,-0.75017878898675683,-0.23604874106351309,1.6060090774961537,0.52549271363723982,0.6500928834027605,1.5829140264239825,1.2078179966169806,-0.55511852019904273,0.051985651411374574,-0.4439773813292221,0.65766165281685485,-0.43187305681858407,0.36354244448179129,-0.33251677014816172,-0.46718767804309608,-1.516479935388255,0.078576285323250797,-0.015626913031540762,-0.6613778882417729,0.0085220325742023824,-1.1647241150081649,-0.53644224409396024,-0.69547533268582751,0.064049864665158385,0.90394924560615497,0.8932538994669893,-1.1389538855085903,0.24905989922056349,0.50005495392498023,0.53774506063082761,-0.049138005180294785,1.1604917752243773,-2.3701538446749515,0.099242601865300151,0.58843492019034238,-1.250549131020442,-0.65306932644969151,-1.5243627205530106,0.60204943668360966,1.3484863520604311,1.3285367290045884,1.2571646551939761,1.3514406507293972,-1.2379706386179867,0.32283116108429255,0.68041253798138046,-0.5997426322138284,-0.14205109026554075,-0.4497055998369508,0.39728937694881461,-0.67377746624828982,-1.8386840685929355,0.66903121352774275,-0.27164900385001861,1.0803647062707364,-0.28547388875741281,1.2199348384596065,-0.19520904551786242,0.18973352869933019,-1.8866261881400372,0.78564233921896864,-1.4119635477343964,-0.20693941221674572,-0.055215079573251537,-0.91830361898874113,-1.7486403207647705,-0.63233471107063843,-0.13797678489968199,-0.76469002731471314,-0.6958208426006085,-0.99851303610114706,1.7609167660903671,-1.4876105926102645,0.060274000728842612,0.40157310706959709,-0.31062950362836167,-1.0204628068961898,-0.47101698573210954,0.76942511614823561,1.4488345333895014,0.27813305284842621,-0.049397030862774055,0.73613975582608238,-1.2508159486416206,-0.99594051070646661,-1.535658363985708,-1.1513135784460253,-0.68013442016804793,0.60665698122702294,1.4047938611721926,1.3349893319518336,0.47713644856484494,-0.22216464909785133,1.2274731295952801,-0.24138955514552607,-1.4704648462993049,0.87139556258520579,-0.91231354533474529,0.16693910363735298,0.016879964692436009,0.786731512300053,0.5379130174531116,0.0099007158094954299,1.2203569509650831,-0.54793706844904355,1.6803196979096859,0.76379228978092317,-0.96464921377858814,1.0200180733440569,1.4688907354885274,1.3538080262366552,-1.4922181640423895,-0.49420533786417908,0.063182528896051318,1.1149982670073526,-0.94240301128662496,0.40088680832618478,0.90690635644844453,-0.0057062451397074856,-1.5518931211139679,0.46567717390468621,-0.70305768764473708,0.2033697410177423,0.92755430174121201,-1.9341102032958266,0.19953832246521072,-0.83892706858644717,-1.1572313859901933,0.78214558410412871,1.8988986470329006,0.20845960147530992,0.38933892767395822,1.0809111430895675,-0.18210221861252818,-0.95633507957908437,0.33973509823554648,-0.18646277853748652,0.7502477727997523,-0.22937932888482057,-0.1348337937330561,0.96209706920636462,1.3958101962282226,0.56326225467989877,-0.1819202668102147,-1.2145037135197305,2.5319926570111142,0.90467324768253399,-1.9991204484132554,0.30582062418414863,1.1497253760654411,-0.13959609230630834,-0.50576523639234827,-0.40373411941173609,-1.2695494659367907,0.46549920765128616,1.7758335057345187,-0.1075043085620765,-0.062577744769348992,1.0141766026554395,-1.2014750413459365,0.70651800555177591,-0.81895805248637177,-1.4081618473141524,1.0992353897745497,0.81180877114348171,-0.93241101019755823,0.49372101781192324,0.79481885353250536,-0.54367479460731893,-0.63240680114878045,-0.48030224368747831,-0.020523979597544505,-0.42537743745448298,1.3086647795394788,0.16298638496057971,0.67979516358058667,0.37232094921580644,0.31196905560011595,-1.2989610837601078,0.94105597208442637,0.81333103931413042,-0.52825526801810097,-1.6788832731721428,1.1621194297688657,1.4685484951948014,0.82436498996095109,0.79042060571711215,0.29046024126383474,-2.0282559904529776,-0.69578576456108698,-0.099786997120172832,0.32695815955437091,-0.16995266442411242,0.59196885154918821,-0.13420612657324513,-0.11472545085210008,-0.19115354769011206,0.069119783826607065,-0.4512551583094348,-1.4735201495224344,-0.17767333994454981,0.4629088829771334,0.82363740151515863,1.5144361841444374,-1.224947226306295,-0.80667198367987369,-0.16798521916538156,-0.60384142710335842,0.83529013509119532,-0.45847658828296112,-1.8611542652277808,0.83548698972066227,-0.89663965409905122,1.4182592884508196,-0.9856532986128228,0.23732554079748763,1.0537307038142216,0.21587737088891368,0.25756425499878238,-0.14995410172300017,0.52491545263651462,-0.7029456580916652,2.433841542044723,0.93377031294922885,-0.39208114723797288,0.060713087102495226,0.59369364248621326,1.8640629926980017,1.0985471915739666,0.70333278631204321,0.40139112610044242,-0.061438079743311766,1.7785145373691396,-1.4177205957762662,-1.3964822462734459,0.096399889460313609,0.90734006798824773,0.96966140365129738,-2.369579316283966,-0.98728825186488189,0.91659256910322362,1.0085463254501299,-0.02150911346916012,0.76185690152855112,1.2220050011835308,0.92481269298348512,0.51806464055962698,-1.1592643067712243,2.5449995114630615,-1.6734653956129939,-2.013611752597138,0.18999239913619412,-0.81323197683008019,-2.8291843245684043,0.52156325419731808,0.61465125518957764,0.037833144043063406,1.2940793458630881,-1.3749742924468218,0.20652808912788781,0.59320792254413801,0.16127491545880082,0.28607620247284432,0.060345557680935732,1.2013197178751156,-0.22645619427739119,0.23144587827154059,0.38132354250589068,0.61127707937069087,1.2515437674714607,0.0026682472947514805,0.27273780039699402,-1.6229690996522694,-1.4547394320863862,0.45205673172318639,0.79795495482688794,-1.2024678798856336,-1.2187687398694023,-1.3264739108876382,0.63761942363867841,-0.37158852715188045,-0.2938292407797628,-0.48899283097321311,0.17447264956496319,-0.25454640775251353,-0.29305210139938276,1.7648278259948089,0.655380604503081,-0.17110617479769177,-0.045006899009186231,0.20631692595829676,1.3836899787913688,-0.59283895239523721,-0.235180880042823,1.1558697791644825,0.66470151128083799,0.51152481811805428,-0.54707148656376414,-0.59957739250596964,-0.21550744019622228,0.51719275742602555,-1.1798597536212385,0.74737610533786458,1.0793759910454095,-1.5926531049207169,1.1454944386868711,1.4834717829357669,0.029643495268501612,-0.6995533604689036,-1.1312826685744068,0.70680436697422022,1.315170918263745,-0.23625471450000379,0.15361338849603381,0.81018312889570943,1.0724464156544078,0.82490727696274657,-0.20382876273307915,-0.56134445404823552,-0.87226182379132167,-0.23366366588490739,2.3598488579480046,-1.3871719286100972,0.17328804255329497,0.88997361000492281,-0.25231986574574089,1.0198724503811532,0.085151232317450365,-0.73022481379952486,-1.1511875100637583,-0.18135591393860084,-0.46900646572481069,0.1327611862582842,-0.64855013916316817,0.24956335220844733,1.8052295913153569,0.10763651738134239,-0.0072358527776839763,-0.92099924471026307,-0.63674351018210829,0.28970514624004901,-0.75520753569507282,0.56594020699680248,0.51094817482829624,-1.0857506589755228,1.6031831550467628,-0.87949400542100642,-1.416898375481348,1.5067998475516291,-1.7043530978920194,-0.32508727242109203,-0.10455206358413101,-0.77867754644868725,-0.58756595426426861,1.5678246599017633,-0.78968896389855636,1.8092082747134721,0.54318278199513792,-0.8225302000735395,-0.49177704906490421,-2.0730927514174726,0.36948847691615011,-0.6543403942708248,-0.72657288070890536,0.20185838709091988,-0.13489058607637922,-0.26384209799390573,-0.70389866550828606,-1.3643826623157369,0.17571777306144051,1.6564330848519901,0.018108471690580441,-0.04482376257808339,-1.6258394191881338,-1.1156240679558431,0.95387945120453477,-0.13086709296424803,0.37204249654830496,0.29086595532574805,-0.79335399933321527,-0.48400913106829357,-0.33279222233614963,0.30162501831079597,0.092995171450740891,-0.50535982888025666,0.28583156908458979,-0.23916702119022232,-0.075813447965062564,-0.34078205215533486,0.43091894256638091,-1.2975808053965663,0.96166093433411903,-1.1032584953595197,1.1060052596072392,-1.8486176372301422,-1.3560304569649748,0.43089104072621853,-0.46336122213638686,0.66487163477216094,-0.63953039893741592
-0.84877122842311259,-0.37773318759228036,-0.2906725712030645,1.1674716359123625,2.4076839881335919,0.41934865391762377,-1.5799763376465279,1.1696284796373912,-0.20534824988536185,0.68084994907446672,-3.8747792633729037,-1.7388019452139121,1.8799468488585334,1.1555700771974444,0.44285338082844572,-0.0025023602819814364,-1.8258991216841942,-1.0947344989585526,-0.21365847733906529,0.32568041695532063,1.0102684640520554,0.028912869909399567,0.5624194287806038,0.13278128372845102,-0.050447056415159043,-0.33744271498894818,0.22431113459506558,-0.27647088092996014,0.10939959701015567,-1.0050636799360095,0.11778319516863593,0.22546041228445821,0.65520322752145865,-1.1215154168847723,1.0140091526548123,-1.3497866763115269,0.64904398035815336,1.1302180106016144,1.1835414501781325,0.41323928632298224,-0.24569077526466562,0.86362655027633739,-1.1006578224607011,1.4141704334461502,-0.33492658584336055,-0.91164227265348541,-0.61361272644818987,-0.5383342480793275,0.50659662801004413,1.1673316514101697,1.1456930303907749,-0.99105786949247165,-0.55271538356466032,-1.7349250038397577,-0.0086039025728942356,1.0917693901851844,0.84668989405474904,-1.6616474197148212,-0.38411887338773848,1.9034744601483604,-2.0609425987941017,-0.82595753897642044,-0.59851971303108797,-0.23795914529643328,-1.0449663443948678,0.47213896400768685,-0.72085453230408325,0.3019757086884205,0.080838369224203024,-1.0899977206921705,0.87672605660669856,0.1299095193500156,-0.069862595814886186,-0.76867975315338699,0.13072369942135204,0.14956391614160311,-0.28855161478566316,0.29165494994492819,1.704168312563864,1.0501434023541538,1.2048153621989119,-0.95611160330787393,-0.7379229913662515,0.21816054704396087,-0.036765832297643471,0.98354649946740003,-0.33475728291205176,-1.0180698060169893,1.5028360309923254,1.4169552782796295,1.6327756906121405,0.18833090569893274,-1.4475805022623602,-0.68441001022383952,-0.041001004961535567,0.16670092536954248,-1.2140350484956048,1.0158682753161754,-0.003028024539322373,1.4935509808805214,1.234564395671051,0.87811560518339271,1.4056343581145501,-1.1273274428313771,-2.0244888795757361,-0.63983640983492918,0.24309068191502081,1.1766455756095817,-0.78664331813368937,0.6915197370152113,0.36334077295615613,-0.93701294951324232,0.74022571749496147,-1.0445512966550832,-0.66022604781092786,-2.8325408111438919,-0.033909495254468458,1.0416609349896646,0.76631484347939316,-0.55196178569223509,0.11554412318772113,-1.0159733505784911,-1.1971810772621774,-0.32394216897189965,1.0044072867989189,-2.3969884041476064,1.809837505487303,-0.9681869143113212,-1.4484871639994481,2.9461817517060123,0.32326680056374746,-0.082632250119159881,-0.080849865907468635,0.34178638002341205,0.99558653089328664,0.024763233206426535,-0.51469956659867122,-1.9843438494980139,1.3065758536395811,0.55460945529227701,1.8725153746574823,0.85990359982806575,0.13837426445093198,-1.4098221901722077,-2.234608781825242,-1.3629644846523303,-1.3836201002914292,0.42723121231460998,-0.84429935468332606,-0.51222293572958788,-2.5050273474813589,0.32011775119497554,0.72911875704391793,1.1093770109485712,-1.3536753814073423,0.4353141732337551,0.6617783876650396,-0.384405629957836,-0.40927146570337875,0.087400717039885237,1.4977636992217702,-1.7600212742146373,0.64592712034936972,-0.63292847254903339,-0.75978277392593341,-0.081036284496179584,0.45337833158675628,0.81214351903469573,0.24687185101056786,-0.90505009274663895,0.85766630318118708,-1.1965571724618385,0.48441797608047621,1.1429353986826791,0.038979898100543343,-0.20826052610658979,-0.61004141663589673,-0.92494440305601622,1.3811399419067607,0.82764684252270304,-1.2740360291403894,-0.38000596251595981,1.1396454588576335,-0.3895140344029876,-0.20578759521510548,-0.24420601837931066,-1.3003450989256624,0.33852686433089874,-0.13357201318711484,0.51954883661934903,0.35620056162516678,-0.51809612213197509,0.75957586267072874,1.5925507217104404,0.62844331614484172,1.9785084975459137,1.0730504737117228,1.4172192859556523,-0.025775431596125827,1.7220385676278147,-0.3177636974031805,0.82058541468747814,1.874102829977796,0.27150964333290301,0.38528692945131099,-1.5457326968340261,-0.074129676280916157,0.79996066937096166,1.3084768945866954,-0.88401751388630634,0.76643300251631463,-0.23727404287768847,0.58653474358393554,-0.34704734321522579,-1.0991513327228555,-0.062362317633784851,-0.10879228781444536,0.93166887689364652,1.2222816466008566,1.7467924425974726,-0.69163641720371938,-0.37903862032807301,-1.5905290189937551,0.1313732349089983,0.021399212117764705,0.79973732098228278,-0.70935757220692164,-0.04156048468101059,0.06655276129644222,-1.0947376061691703,-0.26647631037671127,2.1312334501890566,1.6658000004899882,0.11865066253205676,-0.071410066484528092,-0.13278294685063999,0.64488852282161024,0.71672215529102323,-1.157324033572992,-0.24721435393577149,-0.31149677772612683,0.4976407395978254,0.35767190378259572,2.1019260550999688,1.1924637103975519,-0.34067542856167754,0.37544539062105564,-0.85683456547356773,1.6746192362431607,0.18947037329718455,-0.30170675526956436,0.89684442028152034,-0.40977578115731866,-0.31789786064207037,-0.31233765866782343,-0.86905706485392598,-1.3010229306175782,-0.19612259666583448,-0.54945541036515411,2.0499327602048631,-0.33547698509220225,-0.025254834336293507,-0.40645595322759304,0.65051916667928089,0.74372837653394908,-0.4816736820966957,0.1689022108950626,-1.3655606167065018,1.2880136227121179,1.8835213512147593,-0.94784734750240351,0.097076980840730395,0.059005791256821219,-0.21841434569055884,0.26134814333204326,0.89224910789795775,-0.4001238139078625,-0.53862166856235794,0.20390416770900846,0.80545531844902585,1.0962834963578123,0.3137012778976026,0.33045917921713602,-1.5398201691748732,-0.41955958553491313,0.012040531965299922,-0.19203534611864534,-0.98122424829107602,0.52238693513430312,1.0517813341352618,0.16384428052036115,0.31065196959809172,-2.6515651722393998,0.18835941585810154,-2.2488481063026002,0.90971846668336376,2.3353677378734137,0.053338248047278103,0.074585569946647237,0.65262827884632435,0.071867316847696108,0.28028933020359265,-0.9198093194422956,0.65414127063234129,-0.98273811203433403,0.25566967014685943,0.51807298488750553,1.2965928952204713,-0.44731066138540082,0.055386911720628138,-0.9264872941533282,0.23530809723439269,0.59571927029122729,-0.28336416629059125,-2.1277644215844997,1.0157602315788479,-0.7620318764795041,0.38172855801704897,-0.43615359079218685,0.35644799042561481,1.3183219608085577,0.89081315037688424,-0.24718106292139905,0.95384724080734473,1.5149892998148888,-0.4155105296819081,-1.9505870447860196,-0.05456259775934641,1.2217190898638666,-0.21826629251479532,0.8612927405798505,0.37887221351264433,0.89780456515757745,-0.43381304753115574,1.7222377614590951,-1.613838517861274,-0.80852882163605999,-1.3196295947359629,0.67608711715308067,0.1699531796625223,-0.64591241559746015,-0.93416682751285063,0.13509957018237456,-0.74419876395066709,-0.14077902004636855,0.33596549169872553,-0.18873916446980227,0.21223747788285607,-0.96822091427257362,0.076862208040045607,-1.0681149982026938,1.039362764473349,0.49943653388532977,-0.98902784567718682,-0.12932441652361462,-0.089842740463269913,-0.821053271656629,-0.66615590650708645,1.0366136055253554,0.11759239446436458,-1.087801360225547,0.55475782781165084,1.7053852588859102,-0.81682943292183607,0.60981358984299616,-2.0249108270552316,-0.5275755986305678,-0.77867890546138241,-0.4392841769175086,-1.7480684475414601,0.35054630360424976,0.72438021620703197,1.7499816702244559,-0.92353012975241056,0.86196165515074707,-0.89828152926473825,0.96136383837746497,-1.0821573704448195,-1.543180857007395,1.4761069164862191,-0.56445301466445041,-1.139346523447744,-0.6543502478219182,-1.1343559429694376,0.054263649841726741,1.2941096540288088,-1.977234498090747,-0.16032584339286798,-0.085364010200547069,0.42811729041515001,0.81143048125599526,0.07284271901174405,0.68764684938943943,0.66298456243940163,0.71112516012840843,0.41361594340745711,-0.61259970331552349,0.65771066502493836,1.1337244265768391,-0.075496673588380442,1.2027870075970508,-0.95493362185112107,0.41045652865499449,-1.8211358916127007,1.6127220736021075,0.16704025393208594,-0.24480584671492839,-0.54421055545451014,-0.42650030863211624,-0.073273112813491525,-0.91025085681808993,-1.1684420316563251,0.13170829880377968,-0.77985392779952889,-0.66983238763886199,-0.40943299338663375,0.22391034168561735,-1.0647089824657923,-0.32745406891224832,-0.26223613275445362,-0.16397565810844389,0.68122999209489266,0.28008824299778851,0.65192532200558484,0.15882188799930749,0.92368072360203712,0.1048497939597284,1.346875287554419,0.65609237772803841,0.45902463154483125,-0.95115700241992651,0.55731016939262334,0.20717957748006932,-0.31621348180706788,-0.23481762875820675,-0.047946348838171025,0.063397094447568553,-2.625889440458991,1.6360316444480201,-0.2463838230386062,1.1657669992422188,-0.30397890688501072,1.6607411531180591,-1.4246798258156805,-0.99465231893681549,-2.6247311979247985,-1.0142652534865215,-0.1182091875646841,0.33740460118696425,1.2219552940344078,2.8148979852032747,-0.65962025342227926,-0.35742569721344752,1.9055433767991943,0.63752634026349908,0.32876779915614629,-1.0738271610211154,0.17943172727423337,-1.16291306366537,0.90667347973697154,-0.39813588280994461,-1.2992873086327474,0.2319330981823936,0.89422032989407108,0.65434202514380757,0.71943653382033146,-0.48378435781780421,-1.3543167949450201,0.63886367810974665,0.44784000618660091,-1.1041273439943893,-0.41309734634457651,-0.31088263505577451,-1.1278249588311304,-1.1353499309763997,-0.83431221675027833,-0.77502846472099751,-1.2269427282230583,-0.66489092963035967,-0.19530864906389284,0.94642242214465711,-1.7960826537966221,1.843507759411966,0.095083042182569258,0.0025803857021835797,-1.1676918738123114,1.4229327918726216,-0.8480734784374494,-0.75899192715684294,-0.4039051193298881,0.090308056051259522,0.072202366988447647,0.45081959436569996,-0.97020803478109696,-0.30039139791752012,0.064228848078566866,-0.84538887139158525,1.963476270255863,-0.63589303874615632,0.054169205064520373
0.77943895405443697,-0.47901207239953958,2.0597008347069092,1.0024100493483077,0.9681014024218606,-1.1790017231608372,0.023208203309335814,-2.0366174490431539,-0.44093701143233444,0.34678353462112399,0.55776236452829442,-1.039142276203558,-1.0075045299026746,0.37550227000518283,-0.36519419783100399,-0.38219293272239557,-0.24362536263835305,0.54251453849835152,1.192542048558576,-0.18353351022735834,1.3583866291470013,0.68471190516491687,-0.21409832897805794,-0.44083922534995257,1.3278932468149178,-0.5112364613586502,-0.14715581775095418,-2.9119481727193466,1.3378862158320863,0.9530587947136705,1.1760034176411509,-0.55540155088741772,-0.65644148164568072,-0.17438856322796106,0.35463511671287101,1.9868842072844748,1.6318064473383938,0.36935951950344681,0.81995716385778117,1.3841049833995172,-0.87166988976888538,0.63037656220187188,0.85131286797626493,-0.11554357191647396,0.13402315774865653,2.9805576002904104,0.52305080029350204,1.2131988560416025,0.15852417807114486,0.71676851587151469,1.1777810523535717,-0.19247236186383407,0.23869453951262962,0.97198187258494684,0.089988318105463205,0.49589421141358775,0.13627332608463871,-0.82314748710407304,0.39579945638982239,1.3287879462080432,0.036563833605915891,0.34564700568028039,0.22449145799425338,0.7259622131967105,1.8385714422102262,-0.14122571853459581,-1.1184432439210164,-0.36044522409422508,-0.14402027311206364,-0.0033966272417020635,1.7439364692344339,-0.0018654325197155351,1.3609359191578094,0.40892830010599107,0.58896917649035452,0.92930611861034507,0.32986209322933063,0.80288741541954112,1.6234702615774146,-1.7617850703849869,0.18340068113437813,0.2585367613805572,-0.30158185649961411,0.27124625208762515,0.66887108342043589,-1.2814626329670717,-0.04154127268510302,0.74950586976949396,-0.75655516521504929,0.27941408880275131,-0.46713360391647907,1.5479065603218818,-1.6854023072191679,1.7556381605977904,-0.93812727500519555,0.40474882298933479,-0.39401830346765832,-1.7595746157409624,-0.15125720587210062,-0.61705502494100684,0.45317637497545582,-1.0102047998649886,-1.505115085377511,-0.2135486491518736,-1.6948354184453751,-0.7298041591425658,-0.6476634582256372,-0.32947911930266566,-1.6118762891317617,0.49457912818266131,-0.96612150466476365,-1.0433236737275022,-1.405545748415854,2.0408949233500846,0.92575381386139388,1.3741969204144389,-0.13212605655934592,1.3095641974371424,0.63607227405471922,-0.29519402810925016,-1.5853441780335229,-0.6678868872126601,0.2209274111453419,1.8879001957991468,-1.2610228407082675,0.16380288096497905,1.1336945693546445,-1.0282399673974254,1.7341115140174224,0.6660743559073885,0.0063067233553094496,1.4191245692784489,-0.039554753307155202,-0.54051590444903574,2.0850871510213267,-1.111771136188987,0.92980843038943173,-0.1333163219871342,-0.14140088826859895,-0.48431637392833726,-0.40974344819190389,-0.87205832228674507,-0.7833353832999661,-1.5400586662537246,-0.44566489650626656,0.57056663866152146,-0.28047187115839661,-0.97568901890111348,0.79954752234867843,-0.21837400119184502,0.88491377412979311,1.8389376880670694,-0.086218935482535924,1.0825273375766014,-0.85422625882352576,-1.0659727081551229,0.094894740232859057,-1.3200756372518268,0.85093148132021335,0.9962446151803559,-0.4672763747233688,-1.2193838226653542,-1.045427213060498,-1.0522579485545211,-0.084898400488789758,-0.44793313662456391,-1.4032950844465015,-0.59295577050040194,-0.92613256291412838,-0.8928783437361828,-0.32292391809250193,-2.0559936357756063,-0.093752574484523982,0.48016189503635925,-0.77592040666942808,0.18598705644885397,0.69917671397902159,-1.0567429919329518,0.87481139067080971,-1.1325307573980172,0.076645898049321773,1.9225709100298176,0.27394681898347922,0.11377854006267156,1.0221423758259458,0.85249808420783924,1.6563183130937693,0.20422864450703521,-1.998173921957046,-0.36193724683057776,-1.0068043735229171,0.36541057746076921,0.66775985636335355,0.56656264920385258,-0.42468975663737585,-1.2855985054733463,1.0623665850364215,0.84517047877207963,-0.22137552522144327,-0.02175644169299995,0.43638396337812724,2.2417991947216933,-0.52076601385992527,-0.44232547425675034,0.012355479871187784,0.38193973673874992,0.67324306092216779,0.55621484460990689,1.561972266703519,-1.0865166477403976,3.4568299237708842,-0.68859407829846353,0.36457947054169887,-0.23659644863696416,-0.29325485808646823,-0.12804235871721636,-3.3256846264727336,-0.21295529333009153,0.11923848848418034,1.9047407754519066,-0.43340420823972159,0.4434263856887426,0.65546684744480743,-0.25795143302221862,-0.45285379075167848,0.2874002984704932,0.0065631298265970157,-0.50247937394158226,-1.9769903203469463,-0.92032929799358187,0.0644277154074126,-0.86177444942386183,0.12599041107826955,-0.93120854744001658,-0.92586502760237244,-2.9972225826963168,-0.63721140820423483,0.76737284518452975,2.0624810913255094,0.069186180381210091,-0.78367933960814251,0.3834394767916583,-0.53187853804184482,-1.0627371978729681,-0.17457320765548176,0.18388257306872441,0.08395282227305767,0.47476312408621629,-0.049894519236110484,-1.6445396610427898,-1.0061117151252339,-0.31400474980180321,-0.98023795098838462,-1.1456489087507198,-0.58813289644955302,0.5645666036020115,-0.058003883726421679,-1.8640133739737841,0.43921125010599105,-1.6039347845909626,-0.72422339113317291,-0.45365527249367049,-0.20720698530807816,0.49610094545765132,-0.96773390231557355,-2.2929299146785147,-0.029557058300470795,-0.21289683175987914,-0.19016566636695734,1.2185114891644087,-0.4727405773984672,-0.58116595783852232,0.56875389800631915,0.29581746618499044,-2.2892670128156771,0.28967426587355649,0.055134974418305595,0.44277191935567811,-0.62766808233532878,0.75902600395640496,0.79784552596756531,0.48057217064544122,0.15915330710312053,-0.16875176199551123,0.82361772338676031,0.28502088513025103,0.79340799719903377,-1.0817958325984736,1.4734752536850846,-1.253534181685622,-0.24344425038648251,1.1619210080761153,0.057137705914307918,-0.68551574912407387,0.28099483763836974,0.019063582667893555,1.1676358303699212,-0.081565748509102379,1.0714697269290194,-0.34405579642738532,0.030906953194449319,0.012490995767243392,-1.645023158285938,0.1096250865684551,-0.58161264887405018,-0.1633122146627024,-1.0146437314243861,-0.86472955836267607,0.88159397136994988,0.022566483567522715,-0.94076677736175984,-0.13655618819655774,-1.1034662326113915,-1.2169756506786749,1.9302689024412534,0.88066648483147691,-1.0107391849239038,-0.55297468075761647,1.3912803794678763,0.030360532539631096,1.0524238115631588,0.73625668511443954,-0.43751101416928595,0.33044265283296265,-0.91215635250176863,0.45477092571095257,0.28073499861243489,0.042521476913056973,1.8924199541385616,1.268619846007635,-1.336980058665372,0.35654130990434429,-0.25571122224564902,-0.58186997637240157,0.56994487826791729,-1.6397506434209226,0.6233172612429444,-0.095467975044464748,0.23579557185442793,0.77490180076374082,-0.22916693529011084,0.79989275328038267,0.30704236492170789,-1.6990514960044145,-0.52496236650551698,-0.79501082497915632,-2.2329037202699795,-0.1295862430465835,0.33099747822189213,0.8667253624057828,1.2360675390053528,0.18835308775804005,0.92960892215117952,0.83798138229979557,-0.20120185453224718,0.44685592875692581,-1.891728205954252,0.18153300810227188,0.012645913124479246,-1.9910629585607309,-2.451837105196907,0.0109323450553126,1.3770534921296766,-1.0529539879279821,-1.6834834836670891,1.2712023661344145,-1.7787931059815718,-0.6168597832911491,-0.25097426267674922,1.7197627781548108,-0.44667110529654469,-0.58121409278383951,0.67007331039808427,0.44916196913986423,-2.2110292513167074,1.2352631322226557,-1.8388469752082293,-1.6588226361787919,0.13795539009285362,0.75868754634559632,-0.24202006437878992,0.73671685854000502,-0.89288473844110983,0.95099244802179905,-0.51934402903723476,-0.67922750530243181,-1.6791627515451304,0.89277758473075308,1.4601305860820972,0.30256350564289802,1.3544953725357101,-0.37489462865983347,1.9652836208238764,0.14708256317924817,0.33986148948841965,2.0148911075331708,1.375037418849272,0.49389861027485826,1.0006722483126382,2.0540596152715844,-0.3620106917553072,0.95722131651739728,-0.017353000444728112,-0.841566522247989,0.2733886628438002,-0.19172293938176438,-0.010023184334542684,0.50148539060506392,0.77981575902081057,-0.17827312732584047,0.56666775242808265,-0.77331006722911166,-0.92570416944326916,0.015470168211453996,-1.5025821151995107,-1.2285978347861721,-0.77908628275101333,0.68047002995490358,-0.24890328015676799,1.3541794224609816,0.488680557491525,-0.071668779972780233,-1.025998875946232,0.41914404851987103,1.5699094141594017,-0.53050661468035409,-1.328228121214226,-0.20047052275325361,-0.85571644155897741,1.9461391399875969,-1.3468684792253409,-0.85137879270758732,-2.0130250747316256,0.96933190968267591,0.57925865380385844,1.1285627068725521,-0.44497728903323081,0.60188696383573215,0.26121529087024481,-0.42202041265974999,2.9616366850584797,-1.2942640144999316,0.24739608754742129,-0.66852703761754773,-2.0656896711013415,-0.2783142615443025,-1.2867954252328231,-1.8196607983353859,1.8087942498038101,0.057971700258061275,0.61211740356234257,1.5244799429970435,-0.35488598905604646,0.39197005508241201,-0.15226037928937153,-0.52329572076537478,-0.97010999429747691,1.5293089761198677,0.53461530805097168,-0.30447333302411028,-0.5601537157401707,-0.30688499718281453,1.2948897164843423,0.31698732582663974,0.24933666696484139,-1.1146733028602436,-0.78770012807431888,1.7719167542763345,-0.083093336298675852,1.6430967412773356,0.14115865237311181,-0.15671424523131369,-0.33013123049610282,0.14944681936038939,1.1014166701644532,-0.45833087943873763,-0.97914508417705859,-0.18357083235292596,2.2694977691590394,0.0712681551197277,-2.2231111774968051,-0.8678377196940108,-0.67837709427852755,-1.4971702661647277,-2.2084884661953095,0.048161050734079378,0.22271101937981028,0.74938564586870293,0.070557382144707304,-0.93507251002502867,1.9336599024629761,1.8869097047836014,-0.91975398709856671,0.25448601795740039,-1.278422400662492,0.79422929346067017,0.14501205082790541,-0.31558432940549808,0.09406277840527183,0.45910606478649363
-0.69208952275856339,-1.4485110707980668,-0.93862290249262925,-0.51171774248197488,-0.58153463631050972,0.24536206032741142,0.7252520652927712,-1.8028967237653546,0.1149368254993018,0.17858345951385116,0.070788231022700196,-1.0587886054783657,0.13789930253209967,-1.4356578923620726,0.73809754126219584,-0.38639302239187157,-0.052804746070070581,-0.95486531470898073,0.017883020261057231,-1.2775273967237231,0.70215655862258497,-1.7380083282840377,0.70502413669626041,0.0063814044758224442,0.5265297831876411,-1.875249357593114,-0.87199115930839011,-0.2594753211650172,0.67290358996642752,0.3752854600709194,-1.3129354138729101,-0.17578472026291531,0.43146075943821915,1.2611874498762665,0.050828068996504584,-0.29379712790112456,-0.50674296469373492,0.24392153983529238,-1.2688823406121443,-1.2477480099215759,3.0680708873300735,-0.10925715011814982,0.4221142468785043,-0.80382481011318063,0.77717752232736681,0.12413481633538116,0.046463915602805404,-0.70214105784288838,-0.0901000964594664,-0.39325006622326297,-0.1401784319869098,0.99632148395448217,0.54062782959581324,1.9560559310757246,2.4982395877167596,0.63939031526473933,-0.41286317011454765,-1.7661159789964995,-1.7137222568532924,0.30244888757015342,-1.0069412992272957,-0.85866317212107124,-0.19039948397321138,-2.6727567353880488,0.95065676840120739,0.38243430902367626,0.25859721620491527,0.10741197862922194,0.827653266922736,-1.2862386325929702,1.4424030331871041,-0.78280196616126452,3.3594427211174107,2.311925041027342,1.0867035227144428,1.2658451687651422,-0.86217238228074067,0.03237819760029495,-1.2857083430382563,0.44636824053236457,0.13091807187924423,0.10317857704398038,-0.13006095885008676,-0.68174994071927886,1.4092218132568768,2.7596480941855464,-0.57789856709707843,-0.30132816854030703,-0.28192732309653284,-1.9206594824937955,0.032185537777462463,-0.77492622669031896,0.53296835711947921,0.46085765370961596,2.0490112778628529,-0.15008567048623425,1.348264888266113,0.37012925229600185,-0.0055442414893843482,-0.067747588962711727,-0.23737721120610616,-1.2835016610307817,0.59803713489427512,0.19737921798598071,-1.0822487854081357,0.29063076173582703,0.029682440380956316,0.17685878570241267,-0.65862389042988179,-1.0253481649283629,1.8309791600323875,0.34639897326042801,-0.62923980224089449,0.12864540651766379,0.82307119540563167,-0.3017270334331984,-0.84281824568327612,0.5464885248264818,-0.83691914711709203,0.062985686850392686,1.0822495926579989,0.94020381377792517,0.074279107199219888,-0.41779834305525404,-1.6179419129949741,-0.80212042907584669,-0.0614182539927213,0.20272858420610029,-0.45533398928758112,0.48529737524428274,0.21946805517871656,-0.13446960360954474,0.78663112963079285,0.63491642989932251,0.01974555916676957,0.54311394939342905,-0.15941438318546552,-1.0030752733825954,1.1066542302968572,-1.2003593456043311,1.1372392175187758,-0.70671181844620412,-1.6403841589994423,0.53265930120281912,-0.58004823021675411,0.40977022788539896,-1.183027466691849,1.1671587049335714,0.62815505101231517,0.70851714504628804,0.64357920510450528,0.38261420220619791,-0.28318779493507312,-1.2866518805227816,-0.25671827133402436,-0.74041701097506074,-0.19394542512862084,0.37240446307370667,-1.3107919089991351,0.49242339172731192,1.2222022988093328,0.36344907736235177,1.3696645180311831,-0.27998900282223488,0.0082883606737757624,-0.36986569138510289,0.52227098045400377,1.5107168646108711,0.744821077098757,0.68507380983132826,0.53264969480541158,0.57518069588368703,-0.6680472860574328,0.71889305344850352,0.30489113013882529,-0.054106197646117904,0.56200648040369161,-0.6847996918780016,2.1890716131998817,-0.79787549064614038,0.48561472447238413,-2.3377468790341012,0.068631032641887857,0.36316032129301895,0.85146144370561927,-0.38972273574140465,0.20677979486136536,-2.0935370150932866,-0.19192838128669185,0.44684015998808813,-0.089965849311766474,0.62265574546224955,-0.26395963653756715,-0.48336373338131722,-0.35403017651424734,-2.1477256745246134,-0.11855983866743001,0.53252673747381152,0.52847477495194395,1.6443335633923073,-0.2360428602523913,-0.28448639507205775,-0.78331606404185516,-1.8309055970333705,-0.079767415039257397,-1.1523550316367717,0.64549260552957555,0.4095005624524708,-0.38597354485357199,-0.27405528485195946,0.0048384686456049127,-0.43408871662524051,-0.6704871873370799,0.9079707393450841,-0.053493298904838636,0.017308147198190998,-0.51998892196430935,-0.045173915815732608,-0.19395574367941162,-0.96333034503333181,-0.13889788681194135,-1.0394137619181418,-1.3897017090273929,0.13346291686758438,-0.10673094096598144,0.32949078828063416,1.4452966344937506,-0.69842478758153537,0.47870440396265823,-0.32262544844558172,2.7674387126675648,0.9669909256033804,1.0888124611467638,-0.76864436000083469,0.97271726005680992,-1.4023225543600082,0.064511999107620538,-0.12887341309029821,2.1379576502325817,0.059580047249333343,-0.61628890629734523,-0.019691923138233491,0.66841157767472215,-0.13100520644391206,0.084890498365664507,-0.57604577490375652,-0.58673010711543427,-0.038535283792522565,-0.23544613324391434,1.1300736893671384,0.78781826927757648,-0.52754149108360049,-0.25039225423255035,-0.49420198808647986,-1.0126664042587863,-0.27079454521277818,-0.72504216021054613,0.26594094743842794,-0.27138925886880388,1.2962597547768462,-0.1687762560425527,0.31502547655010077,-0.44360791245938297,1.0665369143896339,0.35615140960246711,-0.098988327159493739,-1.3808863889628338,1.4897533379235568,0.39004638424712051,1.1383954919598569,-0.42121678749668418,1.3999398439251123,-0.93430390206219571,0.20097772480728557,-1.8000674909053651,-1.1920578203449341,-0.87274225387599147,-1.4495285422654984,-1.9156602446383897,-1.2055858547171405,0.068532338310589344,-0.54737110686194079,-1.1623572519131158,-0.59371112846482377,0.47138297976617799,-0.27519432582670639,-0.79163310143505772,-1.5031851576162898,-0.82202257009723656,-0.49347633430642751,0.95732330339941185,1.4162468728599542,0.021007860694226856,-0.84693433609597168,0.22293037776368677,0.12831892867185066,-0.19227396134346728,-0.31679846633890812,0.64289558712729389,-0.19256934223935546,-2.117714372892991,0.81601532469201843,0.42836588900056338,-0.15272684840913278,0.40111120214110063,1.1699560068596666,-0.47356806708369842,-0.67464142074184263,-2.5391759789105994,0.31664331907731524,-1.8076165283914249,-1.535838480056458,0.84446235199298114,-0.28493266451773802,0.058636200764805094,-0.55321451605876937,1.6730366270248476,0.22736203749049871,-0.47547965156132194,-0.25480843267866021,-1.0333563529743344,-0.67388975194023937,-0.49887193187136158,-0.38517563962403262,-0.31818452447884432,-1.7234441247247778,-0.13286740822402396,-1.255801426738449,2.4674869742363632,-0.12681175552582985,1.2325954974063105,0.56116452692451901,0.18858977028323265,1.5599510025393906,0.024046581477914195,2.6452963696497811,0.041360412324460964,0.82069382744748398,-0.98446992159856828,0.39763996545047486,1.8982067806976042,0.90345883392461956,-0.25423042992540029,0.23942443276417799,1.6125277405365757,-1.779572356673454,1.8716146462934611,1.5171943814987796,0.059431014141732269,1.3609447090825144,0.59317558313136598,0.21737756837134267,-0.24470536467360149,-0.93315005475656332,-0.31223573213018008,-0.12595264358122008,-1.0537591994329021,1.4031460222025176,0.70761346720372309,0.44048633278875204,-1.1139828834045939,-0.13955710568346952,-0.0031421850519188239,-0.32079535274921256,0.2871086663013917,0.17777020221353865,-0.72324053632159746,-0.2943038713799489,0.23426552486504459,1.157581102795106,0.5335000687759146,0.20490919425881998,0.31313226374370323,-0.43797371153421943,-0.27897009286850827,1.9455809108092843,-0.57387877494963846,-0.56272838847283835,-0.69506158275731322,0.79486167582244371,-0.58946427280468106,0.73302142361502176,1.4977200169855864,0.17851233117962048,0.1039904389857335,-0.97273066420436383,0.61146681053192664,0.35579669305602768,0.49569659403406541,0.9423321019337384,-0.086787200034845677,0.87538463776756326,-0.79094336163173895,0.70775875944448241,1.3045902217308201,-0.18679229435358341,1.5263784834414307,0.16136692915715728,-0.14669351615089138,1.1639197393856957,-0.03011795450596845,0.40247984029048245,-1.2499343349885375,-1.4008135591784752,-0.46061503430525258,-0.036711207075305778,-1.3924206932248835,0.36317970631324115,0.60663320501244855,0.46374819956492203,-0.41659486022480702,-0.85333957204105326,0.66895252929132154,1.0444615369956636,1.6874802862182048,-0.95761886467870405,2.1062215146416623,1.6452090050290393,-1.8559437624964807,0.4310648276132365,-1.6002817891422505,0.93991820888254696,0.070103202820438984,-0.36729035154533851,1.2750053404192143,1.6166247216822185,-0.34439029699064883,0.85528936275239498,0.90554338916868504,-1.0922989176848734,-1.2260917707950321,0.2500208669520016,-0.057637115633934304,-1.1593717568785202,1.6253700296499365,0.49926722091440767,-0.55737249753210882,-0.58847509241509843,1.6608939527917554,-0.015859291141402082,-0.53913554341089642,-0.042561622847633804,0.63550878185708382,0.28332246305539538,-0.037123212404689333,-2.6381530134406055,0.084845201191518713,0.036374026217236712,-0.062768741766643765,1.6302842427557953,0.48047183788536291,0.27202132143791746,-0.083995668071228338,1.2958562715337063,-0.24866876371052146,1.2950269267228767,0.018793230059744082,1.1806923654668047,0.95051087611242202,-2.0821515724239212,-0.41772889883819714,-0.59756570216303073,0.88921317585163062,-1.3376119412602769,-0.051467527949123328,0.71481618790886459,0.96718065490892091,1.7701878557273012,0.79125322323903458,0.52854735249713425,0.22473251946710113,0.099271064244564819,-0.2087075659747569,-1.0773231175345239,-2.2600856742377338,0.93690596233325119,0.57753837367185124,0.057824179482276229,-0.12608673663379913,-0.020099091542730766,-1.9248058141738409,0.29614034048175225,-0.49602187631231104,0.13517593145638632,-1.5901162797955204,1.2283805694240868,-0.01683303251188727,-0.72413689803542736,1.5548118877650585,-1.5541239256819868,0.66521559996497293,-0.60118319710282275,-0.16539321187419292,-0.12345783292603163,-0.22768808382755787,1.1440880361771357,-1.7591455617303255,0.28147908553350887,-0.75795860475385346,-1.4936144561083058
-0.22265010150875314,0.33913618256883832,0.049394065640031549,-0.93265287915182205,-0.1678178156197799,-0.86527284998149923,-0.27296984005735569,-0.5965355368384212,-0.11458000551955706,1.6366977629530515,-0.12518902227685899,-0.64291823768196699,-0.47018651779199089,0.099704962234888714,0.26451094191808899,-1.5318221816528397,-0.87448062022218842,-0.2684287265891111,-1.6061336075356261,-1.3098566088175816,1.1433570253672052,1.0227853935781956,1.4491421688306969,-0.31393699970126032,-0.22534665911820451,-0.38206880949999511,-0.51094421086151554,0.39472259364103329,-0.4264894634045161,-0.12081774136111433,-0.64226844741992795,-1.8761145802441772,2.0057140541689393,-0.54657599066507112,-1.2291833620278256,0.61450219516763738,0.75577245339866939,-0.1203563159405772,0.26297229922927068,-2.1455598504239326,0.35123307740677406,-0.47328864128822956,-1.6150245486531805,0.46275452196375039,-1.3058592647386864,0.66271257461084643,-1.7361802309635384,-0.52526207455921814,0.2834915571383757,0.13216234570956778,-1.2937386877222952,1.8768318925525798,0.59852243696275076,1.4248388595089865,1.2840613608355642,1.3845359391593439,-0.03853419210088916,0.1054930500178579,0.91012337414555999,0.45511023398053257,-0.15905461192773551,0.35787038812253519,-0.11450222183032759,0.90593324777240669,1.9295672304164007,-0.022909879376255906,-2.4582400977264012,-0.90795107755625137,-1.269743191071129,0.49377169899089196,1.2208900247360197,0.92915263534853298,-0.14210910294071857,0.22419678091558082,-0.88872154723404329,-1.021143318549262,0.40600610904940043,1.3184320600448964,-1.6029758315112659,2.4697285670786515,0.77292707997165411,1.0151947540713222,-1.4921125199454699,0.10662633933343663,-0.14406827015638951,0.38425079542632501,-3.0348456118345082,-0.16016010298464534,-0.21636386046709877,0.17113391609523876,2.1187716122055447,-1.515009508707569,-0.97367829832015751,-0.51803765835703486,0.15626567789905821,-0.92278576902581244,0.79800695390257248,1.3376197298362302,2.5448727886808546,1.7219077101942639,0.85261095404691356,-0.38749505113242388,1.2298419240767222,0.31631236415623021,-0.79829417552194504,-2.0059215460363049,-1.7185928484632036,-0.34968703708677962,0.34427089110669473,1.4469892537843538,-1.2588471995837629,-0.6019433596097068,-0.54298542911714487,2.7002308288894747,0.40894158742221931,0.1084819037651359,0.16310871876223038,0.7644329637862276,-0.58980350701974016,-0.46621617685103339,0.64505511695395612,-0.45647542114178147,0.38647844275002158,0.69185527520971968,0.92870148625407023,0.11691362194745668,-0.70134667743060286,0.42240498008886584,0.066199342912843309,2.0968225096808615,-1.5058926288130858,0.11120022668719584,-0.39623121265178224,1.679193441492383,0.60480532406578524,-1.722169541866563,0.48600441905379288,0.40413658407892705,-0.66880368378935418,0.18597897689611484,1.9375018833478224,1.1991579149244966,0.050278591607130545,1.1110058210420337,1.8119300486224057,0.12741940148329731,-1.0362603943692124,-0.15162970126484793,0.9240102138661388,-1.3617609815891505,0.86602236106388242,-0.64912980780843133,-0.32974764557622965,-0.53027572422007185,1.29041467119998,-0.59892916055076351,-0.84800762052133449,-0.69677777824669707,-0.47402977666434476,0.19826207686389835,1.2599892892482525,-0.9970597926683813,0.57399234513824759,-0.76364750631819645,-0.48613324636786676,0.41953551928618188,0.17066320680459163,-0.8714780512545709,-0.42840412994367955,0.43818061206105557,0.4046380122711532,0.36629066874433192,1.1046142174794171,1.0640818873002647,-0.74515427326764427,0.83612155510624442,-0.73063550072442607,-0.036546430192316223,0.29011226168830107,-1.23976396811045,-1.5950481222982227,1.6794786811234907,-0.22743345602399742,-0.016728881837369085,-0.18438511122804455,-1.3879231736214672,1.3573030910183821,0.39725240963416208,0.89860532941940052,0.64073527721754697,-1.2414995664220438,1.1674655557163238,-0.053464086286452418,1.3461954413960928,0.56838829583262918,-1.1458293899818919,-0.56461956343721298,0.71834266718476492,1.1640318154233982,-0.55689798887744457,0.74013024590715892,0.17823851112782088,-1.3077127618194568,-0.14309245217447139,-0.53115708605535816,-1.052624449710833,-0.50737449323385198,-0.16505316552899879,-0.68122767745036483,-1.2169377572197178,-1.6871927807715938,-1.182760336175785,-2.1735388036730297,-1.1921334325639652,-1.0415905795655753,-1.3323268281858172,-0.9671109616243535,-3.8140911668494351,1.1121731478276926,-1.346839230669445,-0.36912537835435028,1.2664664130934371,0.7704936960465506,-0.52646285312231511,-0.98227156855165687,0.71898267230106772,0.79973379823903046,1.0156579926433349,-2.5063166175042704,0.067828810055065192,0.21393413681979306,0.78888004543682422,0.062119675968066015,-1.3154678956686228,-0.51817694746095333,1.4001510946755455,1.3054720315465942,-0.01429215260935311,-0.30085377618589126,-0.57250551453505605,0.20236001782106083,-0.10929727839143866,0.27834490268100692,-0.69854981781604064,-0.10987891407999227,-0.0033741863010075413,0.22292857457696194,-0.59450996034772852,-1.5856915357364658,0.57747596738721174,0.70927627613369593,0.3820594239595107,-0.31703373385097738,-0.11398383515490616,0.19114200866483502,-0.80343912421451147,-0.06066121412664649,-0.74701220086248488,-0.21291351679303491,-1.2997092472703378,-0.033065651852347701,-0.13222151179056524,0.087151423766693492,0.10994673111715718,-0.087939502509883236,-0.61882476116680707,-0.21342785313567547,-0.30216931840590378,0.94677633573769582,0.6072772439733416,-0.7073031844491422,-1.7609679014264525,-0.42535208370413774,0.25196880286220524,0.17049372492271689,-0.27471668552437334,-0.46622354918800951,-0.21835725690352062,1.0731355505202558,-1.9424594954263306,-0.19322044393857937,0.039375784760733001,0.72677891357394064,-0.16472435701997715,0.18534506368071349,0.8832198330547496,0.4627396969217511,0.81423086577461556,-1.3545287925680716,-0.86446284614882685,0.27014451638986337,-1.185741390507707,-0.85205222823086768,0.40379149467902903,-1.1076386222230765,-1.247503191812432,-0.79231793089449187,1.4506640693711821,0.10049771461856438,0.097248855531480216,-0.62341446586573501,-1.1594559983402293,0.79276636975359438,0.18819611645695061,-0.75114322287195712,-0.75206601012550878,-0.076663920669305524,0.14711086733947126,-0.88497826607990571,-0.053032618038677745,1.6860669375355246,1.0058442294672536,0.14973532266395395,1.274383157568038,-1.1352861434189028,0.14405227568242185,-0.45775989771234032,0.55302276244676318,2.5806169657160862,-0.15981353362842052,-0.92955288964760763,0.30945709641886471,-0.82441804650707684,-0.38611271817896509,-3.9514587986198211,-0.95688666692063107,0.74122623510594943,1.2371169184089814,0.62152410996167595,0.55991184920271431,1.1828153264101355,0.70273373717102561,-0.77383221983406936,-1.848373214820177,-0.56269054948619401,-0.94204057596613844,-0.40465215043066555,-2.608161156455445,-0.92516822311946179,0.29839373306417993,-0.67744754645558514,0.90546905523128685,0.31659136640114688,0.15370443165050796,0.38399329053150066,-0.19964140429583768,-1.5517129950636366,1.1891933782584594,0.72331824503127129,-1.964141202826281,-1.3195666936846342,-0.12236121644844611,-0.5092023748257799,-0.39403411748948686,0.21712655239048662,-0.66175866971096176,0.8296996432488668,1.7170352114293463,0.12418527288830067,-0.97931594731118277,1.9346563987541292,0.79773773737442866,-1.0713691253420048,1.5104966114114042,0.050639140871583749,-0.23138087635118376,0.28636069222296912,1.4078100616182083,1.4446489709757122,-0.21471889574980502,-0.24114068982189679,-0.47071601272714614,-0.00080713946942269138,-0.22863660592685334,-0.15356836655816969,0.15835617252941137,0.59357104124691229,0.56595121314122032,1.1115748564648309,0.56353565076431489,-0.35677697324726237,-1.4851718426151188,-1.1009619797057562,0.14148176040698454,2.2691240152173719,0.59756933874082208,-1.9018310996975663,0.18759870233729625,0.17473729401721352,-1.0810127075411728,-2.8828348152140761,-0.61725936880380328,-1.4874704766049001,-0.67811499251212026,0.35858658939720944,-1.0742850907819985,-0.93373547014237424,-2.5758769711693525,0.045049069338554203,-1.4159683621500032,-0.59451796877788909,-0.69582788001742291,-0.20547794893294172,-0.33381449050420731,-0.34691472267129142,0.25224413981347388,-0.99968414070019374,-1.1959958235695165,0.1553792256441992,-0.057470616116357821,1.3816248075835549,0.97039233983785478,0.095219222658333172,-0.05845201027005284,0.0070943725883854253,-0.96930232669008543,1.4556347540388639,1.0928068893355833,0.15323712639654247,1.5176155959156497,0.76378020242414857,-1.223783521238244,0.94243675895691814,0.89919948716259934,0.24509766361074697,0.58407014222890608,-1.7029516462428298,-1.6026552000150189,-1.8597981120006313,1.4639483898490335,0.55322173500445571,-0.51917127976888588,-1.7052339699914505,0.78910012548325625,-0.73431966042299113,-0.43296693358434657,-0.67906572123542785,-1.5348310748226246,0.33416138343310253,0.36659449762179613,-1.0950030161787072,-0.44695580124277584,0.71332466929029636,1.0058569665450385,-0.24060657641416996,-1.3181819295858233,-1.0087777977437276,-1.1165010188980355,1.2506035926838945,0.353256018183146,0.66246241441521936,0.59266830988480557,0.90951655421794764,-2.6524784273844064,-1.6869925007232887,-1.6725945209864796,0.65008837470908609,-2.6775976761282343,-0.48021862592810644,-0.23374727875303633,0.33020199215647134,-0.83533792986195976,1.1042277868912969,0.33611600231532496,0.97093436416403345,-0.28019131628998023,-0.21441208376040502,1.6255539798469874,0.9735002436804483,-1.4621005232804238,0.076843200585967344,-0.062754460443932653,-1.2485358283968011,1.078941909477015,-1.5757959729569897,0.23554505428895067,1.2539934735482172,0.61526803705222721,-1.4449455334951424,-1.7418808260966356,0.86168481366683636,0.17412189874478956,1.3306032940777976,0.20605672627728452,-0.0536576548641945,-0.78016198200751474,-0.17606036660696994,-0.1783797066307829,0.69258165406414873,1.0427323942374467,0.53185500277034137,-1.5803420768223571,-1.0096776126884515,1.5676090227391781,-1.548105833651348,-0.26320437844820899,0.27822923781383962,-0.57204168612357387,1.5421809297596687,0.96245121393890265
-1.1656059168991773,0.83562501825843138,-0.43620197203228467,-0.26191888476256964,-1.3746588745354602,-0.83594557279161563,0.59176089346377225,-2.0286431771026296,0.97486453562288844,-0.55760865325210995,-0.26373981618207593,-2.1928373834159318,1.6567392810450239,-1.3973122184121254,1.0348166792649789,0.18628399495843623,-0.22723055409294235,0.0038609969119149093,-0.80500231123735433,-0.43165380223857258,-0.46155642189795953,0.18306828458993621,-1.5184415300797243,-0.56799219436436998,-0.89342033193778103,0.85773838866847318,0.39789273433473477,-2.1271794348597988,-0.54216067018218173,-0.20228310469245364,0.28370275759566005,-0.25294239428747961,-1.438891470479458,0.7322102113654374,-1.0873812853629024,-0.99273227036270772,-0.60628857730257435,-0.75681482154847834,0.54222644744176829,1.4369024015225356,0.2332657910852439,-1.3343661600135934,-0.48648678863959,0.15008496014155498,0.39224108443728822,-0.051762575196938124,-0.85065807222156387,-1.1497467463098945,-0.42374493422665288,-1.2269914343062409,-0.89766547652657991,-1.8682460288118328,-0.51686543900301141,0.53000806398310896,-0.81984876072217938,1.5642305760567545,1.2688967528780049,2.3937695284836793,-0.54239530353098608,-0.35870884989308366,-0.63090899810073064,-0.036387878424439843,-0.05869627800504594,-0.69877342081131566,-0.18587567530119581,-0.12596492996793104,-0.40958000161017766,-0.87215975012247327,-0.055268836578310693,-0.28277976966458035,1.9471799919946697,-0.13076461228512892,0.52946702523962708,0.47171135206718939,-0.34175349229464963,0.9800371335503737,-0.42862370756835327,-0.89311829183252633,1.3684681962732557,0.048924280152143194,-0.3834936051115137,0.52149213028123165,-2.3571512782435304,1.3797600930643006,2.6081995008767667,-1.2694361909010576,-2.2445067408803059,0.10643691322041689,-0.61848122789058291,-1.9626872197522787,-1.4425469684232715,0.42494490728149903,-1.3713080791903587,-0.55624922911653996,0.80014252106280337,1.0071005176022678,0.13766944246143803,0.99547114747554533,-0.14357027979550363,0.87380506508380451,-0.44623370199101825,0.1300341810822615,-1.1114128374455592,-0.66414427363942186,1.6978650627723908,-0.38031814959866128,-1.5613190150299709,1.3016417393391067,0.67800629384174227,0.88618036854643745,0.18802975323296028,0.39093705972651693,0.23648483821203639,-0.18627037699045232,-0.98324244312994169,-0.28735716902709729,-0.35633286493802191,-0.98517242660133142,0.87287020387761172,-0.46736538180694071,-0.31633696402660905,0.52618394351204201,-1.5633706696154623,-0.64457573513647093,-0.59591613086838158,0.61740368025076109,0.82919275325988684,-0.14350300511102124,1.6734227481984068,-0.10192973780098027,0.46100539196966694,1.196444870070275,-1.3575048278730975,0.87765455271784776,1.9022673067980693,-0.10746935382098614,0.99737079194969791,0.93030710064135058,-0.13815260699946444,-0.57715923799275193,-0.86072240400644073,-2.661596380479287,0.52257841175306219,1.02547411428682,-0.39448306705898573,-0.80215129292903198,-1.097453144522585,-1.3219652867175853,0.19484494528784141,0.28154905790002233,1.727157850449635,-1.3945424721140909,0.50537139931171693,0.12096354112423395,-1.2837827814132692,0.1873585563203739,-1.0228921726556977,0.31082029680211837,-0.7588213845070696,0.68645418757751919,0.3172055157452548,0.25249571838016738,-0.10424959254999008,0.65609759457338557,-0.53697747874583912,-0.58112006667657357,1.6797086820318927,-1.1712197868865404,-0.83488720302369601,1.9936909474492268,0.32340277564612635,0.15406869294653541,0.57434731016176488,-0.40398341845226798,0.57316948079605645,-1.6403880285799914,-2.0075348669602358,0.15810841738737194,0.50919640581889614,1.0279810021912359,0.24777091008298274,-0.48660540566128846,-0.60671373806488837,-0.73200092736247191,1.388080423965582,0.39695524007143501,-2.1192728573197037,-0.52671533331127973,-0.32040207567561635,-0.44182927269059036,-1.560451375363975,0.75655449466044389,-2.0480595406342705,-2.1966018082817476,0.4649636395033252,-2.1491511090400066,-1.1966277321879903,0.058508634913218678,-0.81065115917754249,0.38877289996094339,0.77382115957614084,-0.12272820071774693,-0.53616281744552652,1.7778132599208607,0.78063911493504312,1.1024427036998969,0.65247523494849791,-1.0456079970771543,-0.8956275070321158,-0.50859482560162195,0.21701890060764079,1.2012211223223024,0.35788670514178117,0.010389703768735773,-1.0819860921913758,-1.5876452844279172,-1.975100260266885,0.44278444014246154,1.0605929294972398,1.0391311843667146,1.0045771445680216,1.5121463359597329,-0.2186752334546723,-0.93044788880299123,0.81577965747448145,-1.3436560478706625,0.34588584496631192,-1.4123197719148446,-0.42601812977861003,-0.82055126393266276,-0.731739613799954,1.279369958891476,0.78334695077520455,0.26965078639217588,-1.5173335645058503,0.055042848797037462,-1.1327398885149063,0.57791819290541491,1.0262573571259264,-0.84475992568030922,1.6389207027673858,0.25947689668709933,-0.20617685901336236,-0.23747173098239918,-0.11213600868651377,0.63413460379610043,0.0076151992293444874,-0.41046686264346677,1.5978532445944233,2.3685257487502893,1.8734623545530413,0.77030005086732323,2.6658930506307241,0.490145844647429,1.4239820401096506,-0.94606262185529999,-0.099926585390092248,0.9899833957984745,-1.5764950798910717,0.045600154189866141,1.8414402038715258,0.81588079261117441,-0.9143202392364026,-0.43801065491498414,-1.0166282249869243,-0.72932690128550803,-0.27800809449213126,-2.2797826691740295,0.78776359050333467,1.1367153534948415,0.62721499663549785,0.6668907052180264,0.61238300364491072,0.99505248591935525,1.6399471474728902,-1.1345240037944886,2.0030794832107328,-1.3699059603244992,-1.0733034012328115,0.55611077661927366,-0.31302583289968727,-1.4022220479892444,-0.29374383438564977,-0.34821160444544241,-0.39163270268899131,-0.026451673356216159,-1.2921437805938467,1.9140871232475205,-0.75388628295794624,-1.1499749837075834,1.3695049165508102,-0.95567294747758391,-1.4797192111587341,-0.47503232990453009,-0.22155375157649132,0.98045954308878502,1.7794476986666061,0.15874775547321548,0.614796056242916,0.57469807685727003,-0.24821167881627157,0.25380321418775836,1.3687967909776317,-0.92688709730425789,-0.55965965642726401,0.34578032487258908,0.070104215663180314,0.0045132108434786031,-0.72923806148683257,1.6183733112190848,-0.085019842632386919,1.2624203417033477,-0.28673616149296127,0.72796697743293537,0.96932768046236384,-1.6896404357836661,0.092163074616577217,0.34127884542779197,0.68005392977581169,-0.43802114331181097,-0.19499427235712383,0.7683970632064403,-0.0068013033952906048,-1.0418677052056,-1.0455275765645922,0.055597473102386191,0.18257875719056874,0.58099533793155911,-0.5259311280718526,1.0278950403267102,-0.25103177347090583,-1.0421001631752622,0.90071916547800113,1.6446668923645049,0.71109160313437758,1.0432957858899572,1.1988197159135909,1.0864501041916426,0.34905013916417316,0.28853943558005141,0.51439070358073036,0.24140746223447807,-1.1765121041418336,-0.45510323660446217,-0.52059188174064208,0.83821536302593957,1.1472935923597105,0.52853923087621646,-0.15136571745734709,-0.27616076648667282,0.098354651979771224,-0.26384352106764181,-0.64274090185920563,-0.97098420567887855,-0.4386502870067312,0.50196332254565923,0.22616572758141221,-0.034183504699406377,0.1201327953791609,-0.23083348865115885,0.055115715356384154,-0.36858937812725179,-0.92942836360522851,0.063492739110279847,0.48008393776247682,0.3666235562839299,0.71919697366667423,0.34862586874261492,-0.30392569021695542,0.9404480373602786,-0.72309496551551511,-1.7204062714193911,1.1126601294603675,1.0213037024452116,0.81214383029808912,0.58250563506462472,0.59383158235247258,-0.24111663572393791,-0.20558964339642216,0.018600473475526472,0.48094680616474644,1.5522057204444495,0.35707156366471227,-0.43210752344999459,0.59367352748081414,0.19717802849068522,-1.2538907185283885,-0.94559283137371763,-0.38491162356634889,2.6724089545843559,-0.77310804199796357,2.7237495362054975,0.35029701961303811,0.82112461840515139,-1.0610421333639439,1.7705416209408011,-0.39016047613223542,-0.11560233665385378,-2.0359792062182902,0.21501660176174522,1.2230866098781465,-0.055793361383596717,-1.2424200214690835,-0.52521439070895592,-0.64552572336267611,-1.8373628601150682,0.60683107978208017,-0.2832692043861389,-0.48078003243628131,1.1630343866211346,1.1764389022070818,1.1462587490236549,-0.15732271292216149,0.56673480814231914,1.7082534289895939,0.25523445345614365,1.3385087292858404,0.34186225441125156,0.27720267062933623,-2.1355400292627769,-1.7555550230702039,1.9687421474115174,-1.9838157347296819,1.0534879625806797,-0.83002746449981979,-0.33006984313091109,0.0052372507544043807,0.22946787743238828,1.1724645304682806,-0.66085415674145009,-0.85245136040587022,-0.92490475193394373,-0.38261055048298781,-0.37267123892234927,-1.1348191293261072,-1.2064056012110402,0.76751148033946548,-0.81272586795226531,0.38402364998954469,0.14665602398450092,-0.79025418606054854,-0.62218914109811863,-0.33337255612591343,-0.10424870050034793,0.96527334074280779,0.72956398152830593,-0.0076039334056874752,0.43536317211715098,0.40163528526979408,-0.71811845273201536,-1.4229017138033648,-0.63730361088689336,0.39977362892646479,-2.1374222668016301,-0.56680784907964443,-0.4852542567054639,0.68010592645561929,0.89971074634104298,-0.62050244073469774,-0.057134293233416157,1.0222670778394365,-0.5761414151351355,-0.99443433045872287,0.86093489448736904,-0.86369662584074591,-0.40911213393792151,0.78009270342866255,0.87180936783187679,-0.58427896530798129,1.3110019920575748,-0.69935288622708891,-0.031856106060804384,0.30739292193475792,0.61843035158998994,-1.3530490740386585,-0.14106991569813049,-0.46350235905170389,1.841347552839194,-1.1057500380348,0.58300395499709567,-1.3045558949541607,-0.43191034019010743,1.3100675961889618,1.1128722018294492,0.3848309003112419,-0.57906631697483635,-0.099225475839749305,-1.2548802387996392,0.1798464998045487,-1.7728313599038308,0.47436540249769599,0.7264339512851079,-0.69863794914663391,2.2371925022858115,-0.72524689998945469,0.11075038853802917,2.5596750642322528,0.045575762564125294,0.19075526231870624,-0.28151007480621376
-0.19104921089057084,-0.12452672384593523,1.5069998191205767,-0.20988388160876129,-0.32066662642366855,0.40339939827605487,-0.51321641139850693,2.4900734357425836,1.4186740018954436,-0.7056137957664933,-0.48071290615496226,0.94555413567105984,1.4525120700808016,0.015994645725165034,-1.4799546627062474,-0.62886678075007041,0.17479663998944917,-0.37533124060424911,0.33370368280317064,0.84880851853265549,0.35103294807066721,1.1497082608100229,-0.61677205924748701,1.829370094093107,0.7513256398779774,0.97372282728954185,-1.194667774826198,-0.22017832136220059,0.13798985540533051,1.3981957995506604,-1.0816603616434053,0.082040789417658536,-1.178134723358973,-0.080344956727751105,1.450837103317167,-0.30510468621634734,0.69347031285072669,-0.42266245278642001,-0.30712903629078564,0.0083067605452061526,-0.2264543382476539,0.18168777601129776,-2.0383929015802518,0.37799083461507349,-0.92554981084564913,-1.7577310607877505,0.37592908791898438,0.85000009235731544,0.49091958442524469,-0.10024165457499681,-0.062694100346838547,0.38753818109175847,-0.37052393103705722,-0.57813979252612202,-1.516709917226188,-1.2815559320619856,0.11521746152579428,-0.67142828354970785,-1.0522419333452142,0.92076966048188758,-0.45836226197699276,0.70518895743155052,0.74142692850690917,1.3227331853825657,-0.050374248149818279,0.24064336796555197,-0.45326321614784687,-1.1253507633450692,0.7814541789470989,0.024949547339795576,-0.090829855502671822,1.2415788579865907,-0.77930449667733181,0.47624144318605183,-0.013252334457463648,0.60953378520344914,0.94701824553421865,2.028662780062946,0.55481712363830549,0.19182318108173632,0.65459063348520519,0.38077323034953919,0.50851573818087281,2.1189243987729744,0.56485427948427913,-0.47782524090612444,-0.27568510393778861,1.2902391809581355,1.0155194575557158,-1.7000342709754592,0.86166588133230482,1.3685107256740507,-0.71104160761578572,-0.58091608939679151,-0.53460631971397443,1.0015688978723878,0.39171482672691565,0.67415659749228585,0.0974286763850193,1.0834464354368856,-0.46478698453259576,-1.2337805280366096,-0.50687870672334434,-0.44609816994410922,-1.779110910181952,1.1020213411375026,0.051089960802754249,0.37761998471308039,0.16561284398054513,-1.1724410825296274,1.7860839938646187,-1.1636997234766924,1.4118936400084585,0.49656383539243254,-1.0399268870393277,0.91673412939215826,-0.54484607796191609,0.050533391256378297,1.6726923425999387,0.81554041938277577,-2.011152676422904,1.060186367678903,0.2214547238353303,-0.29588869624629627,-0.71684091316617993,1.0026999093732125,2.1403453722379076,0.63176625731171665,0.54400622298677292,0.37870893677308914,-1.0945906459612378,1.1527676835851821,0.19773660714500813,0.75344143130325603,-2.0387259159367912,-0.52245066871734236,0.92840021249406413,1.043884108372741,-1.4066686211002963,-0.049075773344950627,-0.9187025873754352,-0.55346897445574861,0.71637374755851324,-0.11461298882614696,-0.9979540198483754,-0.84930625415756589,-0.1362884950051847,-0.25934687403775974,0.23767432406291544,0.93049036048541489,1.5239368215707734,1.2898131466121587,1.7755560519262192,1.5677473099390178,-0.24465088851569181,-0.096442180900016342,-0.9718351973944519,-1.8563111290959065,0.29988318581867263,0.15325243542944067,0.1598214433476994,-1.0618220357715646,-1.5354351449509822,-0.36055375778793752,-1.3110636174139043,-1.2633156961464909,-0.032863420316851008,-1.2438143934984922,0.31722874888871155,2.3874591413825397,-0.52262297055269158,-0.34537960182898331,1.8050403196260107,0.26192504771902353,-1.0292044925174555,-0.35026553693057261,0.34049909844030068,-0.96939772453883599,-0.58293038377057005,1.1924127330670149,-1.9385292030038668,-0.61614091348734368,1.1961148048107979,-1.0684810217507337,-1.7442999701714632,-2.5274263441998013,1.2117848903993358,0.18963802934495333,-0.96602056063937236,-0.24078602665753746,-2.2176627847923536,0.73825570721080802,0.085690134862289047,-0.53370029951951392,-1.1839682142869969,-0.39420188408260343,0.22492334995777866,-0.32581961420245703,-0.27921104905761251,0.22175392755116088,-1.3489971393269093,-1.1306501174399273,0.10499540552048454,1.4787602954414716,-0.15326435536839372,1.3104250409834979,1.3337850297025942,0.038372019466437902,0.043447123878332133,-1.111251111467102,-1.5938661286760993,-0.26822922331622034,-0.096861156608604213,0.23241757196960733,0.22746977184321629,0.65177271888995947,-0.080710148593055295,0.067207616559160605,-0.44893053447513515,2.4230329232066414,-0.88162721731580995,0.41937566446580493,-0.087864397468369174,-0.7191301291078932,0.37391392363681014,-0.39109826575724083,-1.3063127041050457,-0.98263915703110949,0.1067738124495763,-0.36925727966645638,1.466296886138883,-0.39079612602348929,-0.49368727923258288,0.023421398014486956,-0.046675457486594116,-0.81158533204520056,-0.16779940696370552,0.52500677987867927,0.51806171952210245,-0.99794134944869606,0.28893237386919712,-0.19175433263767336,0.49196907860739103,1.1290301050347371,0.16115691893203293,-1.1061534499723338,-1.2055411643061986,0.57352323272136663,2.6471856492034767,-1.3685773264170977,-0.78840600725186893,2.6615944314856521,0.54054564823408791,-1.5951685709718997,1.4899335397325231,-0.75921431544405515,-0.30773078171450396,-1.0734472747695547,-0.21778452991573607,-0.6545949830009079,0.45215733743168507,-0.62476021020455275,-0.79635802031466618,-0.39968670853025007,0.60188396397880528,-1.4556724408807511,-0.78339365944620976,0.58677764125976839,-0.3661074090187475,0.21265083818056527,-1.4409246301657037,0.31765110944649583,-1.375285595310048,-0.93919579105700324,2.3061127469508511,1.3301343426529921,0.64604782675006622,-0.89687719708233982,-1.9770584816501782,-1.0676456078998959,0.2641142551026342,0.3244861696747941,-0.87192648736820966,1.0641310130545156,-0.84161277745864349,1.0198008939229248,-1.1681387879325913,-0.11177524186701876,1.6307490375741103,0.18261087767114942,-0.90447771941925847,-0.74494691288338932,-0.81329448517333147,-1.0322321667577834,0.5100731659994715,0.012792451288853528,0.33393682758622795,-0.15648779431780735,-0.56392807204609097,0.80761844760898982,-1.0231381301423972,-0.48047665940786999,-0.34711285942022085,-0.87214378201212639,0.75225144298752544,0.50174799154897087,-0.19040398943545539,0.61923867455544934,0.16350240371958799,2.1648192578418488,-0.36494623504745821,0.19632302430283416,0.64047718236465012,-1.3644387452868116,0.59964953739501492,-0.2374773147355547,-0.3034467922830838,0.81954614996760311,-1.8739624607589045,-0.991808099357672,0.26955135820600185,1.7642957867103919,-0.31275393252376987,-0.31373670066850823,2.1511375680002431,-0.90785775673717106,-0.21916103901818768,0.23894616442824354,0.48482139594039414,-0.81150284218220825,0.86938136652638864,-1.2838826452978871,-0.24212552762989159,1.3375190640753627,-0.003713005599373266,2.0181216132419495,-0.33962974877243157,-0.36207023777939279,-0.71682011735718976,-0.36333162431853627,2.3564493355500695,-0.013336385405058509,-1.252667350546627,1.0604332890511894,-1.756551171655615,1.2936828068283535,-1.0227766689892992,-0.47269132648653639,-1.0306957855712704,1.3098109881262054,-0.13151134454935112,-0.7976682976251227,1.4223611536268741,-0.53599130984831356,1.7077531968952289,0.70840512092925623,1.7646527235772971,1.7336452055882767,0.97439897690528743,-0.78693930183687244,-0.25411250127819279,0.4744737214129478,-0.56489828227184324,1.5868316412217187,0.52040113481278727,-0.84010779744053177,0.40678190984297402,0.13852309109943095,-0.60399138716717138,-0.15554010586274958,-0.15062637395634429,-0.07423408766361006,-0.73143681765456792,0.21926008918278297,-1.2737953017456933,0.23264271090597055,0.50829288374436854,-0.26176394107230316,0.65323893139291389,-1.658263422606747,0.33031050774255499,-0.4189360502076403,-0.87957261671738884,-0.63109212372570422,0.65796178623304002,-1.4240677321002522,0.63679628570685165,0.63018380431155863,-1.063936747000126,-0.4861915427228497,0.19307347359174093,-0.58544602744053065,0.70115597429907739,-0.31165375473208817,1.2019437219783535,2.1861969246340474,-1.3074639377991042,0.22759175035971971,-0.5750824292478377,-0.97108854965710112,0.28626468420360263,0.71111099842422176,0.36908397299445361,-1.6451395874594814,1.3793763400251478,1.1100253395767485,1.3756150664111202,0.26152472643146285,0.66294953731989403,-0.68261570661840731,0.49140320999309883,1.9960924119895609,-0.50420424312345025,1.0761612774488123,0.49987151699556853,-0.44563202754286424,0.91505358867476438,0.90029082256993231,-0.51188715491329784,0.35427372254107026,1.7378805966791542,-0.98864250141563781,-0.065750086299014618,-0.33095068142716194,0.023272083858005423,-2.403153024646778,-1.8012492631683525,1.2181269021086423,-1.0412707462531878,-0.0032930329205251869,0.73720896203205311,1.8487610873550484,0.38104453847727293,0.19795240940162093,-1.0213584535145124,0.61480946830489913,-0.6117700589293974,1.1571188080040504,-2.0998354034525795,1.2541355844007256,-0.71392703111848388,1.0079174530771935,-0.0041534912949021266,1.9505055030967577,-0.016290185661580064,0.048435892619867048,0.19996608756206105,-1.81815243846173,0.76691345049288373,-1.318468721173347,-0.8036449254344058,-0.18037803554852316,-0.37956924543698017,0.21233197642231696,1.0895651814827376,-2.2670535909478247,0.47092023386169846,-0.51455328271515588,-0.1504392750063315,-0.015652935630404912,-0.49561651319472705,-1.3553493316869267,0.19239016516563889,0.93100879588405228,-1.0987876319804124,-0.66681644811305696,-1.7462680137757378,-0.80383123060802242,-0.14331369201220459,0.55528120811131776,-0.71116185503162166,0.38768931109152199,0.16425858903773691,0.26928003118271016,2.4694273162481539,0.074569457714961582,0.94684241663616941,-1.1376607880842817,-0.79794569247462921,0.27654526539091118,1.7132747330006899,-1.1949213073417193,-1.0690362566111569,0.59774586473192171,-1.1530999286341026,0.067057469833801786,1.5330927018588258,-0.99509511130363459,1.6526256043469838,-1.448496675476876,-0.34371048279355887,4.196297844679048,-0.77957218532639827,1.0840429602370043,-0.62541812758911408,2.0238380270449912,0.6071089121648976,-1.6094708052308915,-0.31046671536644088,0.49749136873697497
-0.5301811033628433,-0.62465033138317683,-1.1312118692108151,0.91468084927219784,1.328055988147429,1.3178164828666676,0.92672735935207007,-0.28269699091718037,0.7465578398205801,1.7275135069638796,-0.20054576457234966,-0.34199573400471323,1.3247204428148469,-1.0623298159742061,0.91630858721509389,-0.36348116738355662,1.0132707828045679,0.27025628015418651,-0.068914360376798323,-1.6560507069612449,0.084135204224909735,-1.0782237039381053,-0.6512336305089208,0.87237709836960342,3.1026229445555282,-1.0668147081498913,0.22331601210944813,0.38883027276858056,0.92848727697879185,-2.0486203569503489,-0.97721280883337891,0.52329030452922654,-0.94418294107968637,-0.35224172218346056,0.15611132184503304,-1.2215063729657514,-0.57464992846917051,-0.32333457793043924,-1.6239547425421639,-0.5571348292650945,0.47602663395188055,0.40307170200745818,-0.67641053627587255,1.711708284400385,1.344917015871409,0.47143340827629476,-0.16830469689118197,0.84214600824487629,0.042235541232679766,0.49390787940734449,0.33206522032292884,-0.20868301266420944,-0.90670904810767461,-0.90035554007466856,0.52277344972528772,-0.62583720926885111,-1.1674494320311732,-0.075673822230674329,-1.3974440750706476,2.7764249240717791,-0.012171743749221937,-0.079146164731088528,-0.10878835380068307,-0.93637965044364602,1.1844424891173368,0.47072031880241327,-0.26150231450984412,-0.31756152919873848,-2.3444585093541646,1.338089327264484,1.1119388051366514,-0.7439891917823821,-1.4264272554209287,-2.2403012152033042,0.30082835839621591,0.22525583451464007,-0.28055024514832055,1.3412144142961682,1.8579986512974456,0.25870266399954056,2.0414657698536445,-0.51998223969413226,-1.4640218361902937,-0.02019147078415276,-0.24633474778895759,-0.095374125026954845,1.0897468979480673,-0.61053277054452282,0.11979412362592501,-0.32452202323231977,1.3634957676034467,1.026355697131303,-0.61991642027619254,-2.543699095569897,1.5308916285981815,-1.7727883284842407,2.3864786479359079,-1.0020798930876866,-0.50229292733683306,0.72997377969587318,1.1174800179864912,0.28404655376079641,0.028000629540589357,-0.53378989194353399,-1.1260748015974811,0.14545016682480277,0.14005953499362078,-1.38435821310059,-0.19594645472493735,-1.816553834022701,0.86771460826719493,-0.93241070863168418,-0.9692736748617965,0.1762615051102962,0.57352434977756195,1.1589565414751786,1.3773145218276355,-0.53112469563962605,-0.30854530225555948,1.2284953837335044,-0.59837006465809506,-0.7059687392803623,0.71111295539672825,0.3267505526871356,1.2311475273529262,1.458430755172015,-1.2564162749554479,-0.036705799005608039,-2.1120090544863865,0.55844829258554363,1.8173109318559806,-0.12071513147110943,0.17506411840522068,0.29114120610936434,-1.0678471810345893,-1.1570843480159196,0.033825011544669659,0.49070272417140531,1.3105124011711276,-0.64239137453833473,0.33292738738892053,-0.4726608886663145,0.65444872203706672,1.0587537803570883,-0.010820215264017991,0.043488505148175455,-0.86230731493928925,-1.2764243592206792,-0.99160819037951131,-0.086380375924730746,-0.76822803895402547,0.56095721861872483,-1.5117399635405313,-0.39275585277021952,1.0845192500213623,-1.4624794013486533,1.9901660150018479,-0.49851411046297861,-0.19023683154683166,-0.057896930970598393,0.39211780829711174,0.2429420380378482,-0.83541947417278617,1.6041026977724915,0.31146801646745809,0.1680454048758234,0.80766945388667566,-1.2138780721507036,-0.41351834408549321,-0.24484166812575966,-0.044187159829077283,1.7395747893568489,0.016392634405418657,-0.37954741503322481,1.7984858186770361,0.41249788347361793,-0.64984999658194964,0.1946408589409348,0.31248044562467436,-0.087869819180583369,-0.60464775317147179,-0.91154457230382879,0.58477893499529177,1.7268950797499669,-0.72447278907736001,0.40554735854224666,1.819489441376785,1.1645355721459383,-1.0561524912742073,-0.90616488985014998,-0.41461710594111423,-0.59167378555679362,-1.7755530809637499,0.52266580353721237,1.0273656751844147,0.21616061346227688,-1.0975480932500241,0.9749993081406082,0.065231966500172295,-0.87958503401873367,0.50211193388676512,0.29767172302831729,-0.97510715275308446,-0.19907488750764801,0.0077636682516626114,0.13397930365789229,-0.47006161287246917,0.38688041753828145,-1.3434235952713964,2.3330550030617863,1.6052261898912399,-0.30839054107593272,-0.85436267622412743,-1.3679454463544045,-1.1271744467517972,0.23234224435029993,-0.68519096592172524,-0.74116859797333812,1.1436399423099513,2.9340783121394423,-1.2177298601547284,0.21371905358284113,-1.7702318825694323,0.39458899407433234,-0.70988360734678346,1.3369047268142289,-0.51761962065529465,-0.18511544317633077,0.94665790532204841,-0.8234433524530258,-0.59585247825441501,1.5025066517658814,-0.78695531553965736,1.6274042159260607,-1.2446628973020677,1.0669931780443387,-0.28076157297498866,-0.45667269531987131,0.52003469085999776,1.4937177936069865,-0.079666580262505102,-1.1229386537058101,0.72372060188792531,-0.49644862789868482,-0.80344909000932285,1.2617746654385336,-0.10934442232223712,-0.69677022372466357,0.48826700596400574,-2.2988222784276227,0.2248992085078915,-1.0884571868655741,-0.98738624628286265,0.37304702196066419,0.27864008865550399,-0.63971487027961638,-0.00053362818385443967,2.0015901604671069,1.2990774404131109,1.2184622678214301,0.34261163404637168,-2.0292179354144606,0.45394186470406134,0.80664421107964313,-0.3364118292605347,-0.11407322198780205,0.55138532650303695,0.22808715225292481,1.0467687833140178,0.13627302300065555,1.2402327308824614,0.26961291405752469,0.035121783788862958,-1.9618702655631475,-0.070629136067289155,-0.73704423662721186,-1.588056141510467,1.7110713150200736,0.070711779860523266,0.58053591209115418,1.3015702470125137,-0.46925879675687571,-1.7025624933504586,1.0722939234933588,1.0976413325037202,0.62703466205434155,1.5766514049144791,-0.0065201130630809763,1.3679241469956498,-0.20708078834474608,0.035117018899508023,0.37260025515323503,-0.26628601168304311,-0.54481515789270452,0.24792803311605124,0.97714530758019646,0.47836897763634917,-0.30686686361849774,0.66647736146452907,0.60954940247697076,1.1274682551762367,0.82776861432475246,-0.084294937054205224,1.276813715959183,0.63602010296491795,-0.92369006061874992,1.8082677035421852,1.4709246981471891,1.5712421804552714,-0.19648532280944883,-1.2887717611722169,0.98638375131057909,0.21601477375173805,0.21872201005925576,0.52862119338141456,1.5810256816008066,1.1445527476477935,0.65731904529820173,-0.98045057778047717,0.72765039081566363,-0.62046841759661464,-0.12328132206849386,-0.75567198791751078,-0.35552352076460741,0.32996977832044666,1.4451465939250723,0.49315122495066199,0.24778143869012748,-0.33433529261481898,-0.13121104660083033,1.35612218777923,2.6475178440510434,-0.70731815611434889,-0.093132048096641107,1.6515427727443386,-1.3195556679503593,-0.38849624785900116,0.030620274814209508,-1.6209688219180152,1.2648025937994107,-1.6433713753896664,-1.0035852804632763,1.295750334394006,0.33850426139411921,0.29641967621240689,1.1403115868142009,-0.57242885140027178,0.29544502684280377,0.99011972050113806,0.26569237419772035,-0.45933558053681789,-0.48555780589755826,1.8656944334870278,0.48487363592855437,0.7736746935242208,0.48984476673330279,-1.4147100538780295,1.2350546802798521,2.1221427117963167,-1.4975651061124027,0.1743818974676698,-1.8640193980294664,-0.96861390250904922,-0.36355758938980004,-0.7318806735192368,-1.3441993062650488,-0.73112246079434762,0.57467809774969458,1.0397125181955578,-1.177205299607704,-1.5517394484777267,-0.091394908573237954,-1.6354091856130504,0.2494500809830576,0.69826621479925233,-0.03675266516134916,-0.86827347691412471,-0.69679311390052812,-0.11711136420003689,-2.0418809872162837,-0.73690216587737734,-0.3944917950167604,0.70217308226119701,0.019822449063279499,-0.095680338084483008,0.22795780435224974,1.0443745621027036,-0.44086444807663144,-2.265203992034643,-0.88471071490353903,0.3992752297281556,1.5644223418396777,-1.1872535350112161,0.45964333762627091,-0.89146921140150426,1.8707649750758386,-1.3290558702429025,1.91978961340874,0.92601476862238363,-1.1237683056358836,-0.32879110603576817,0.54316535191245729,-0.86370598448320823,0.55712893328930579,0.49571232713065999,-0.25052692178276442,0.39885575941187812,0.19840721123766125,-0.3941323438381506,0.052908481165721166,0.48094425126959606,1.0905298144227005,0.47846286526190973,0.81472700922621299,1.5628261444919607,1.3288237079459833,-0.34553910144481359,0.79629477979524976,-0.63203676402952957,-0.55966778095893244,1.7688866404096317,1.0616386962400963,-0.079365764341507009,-2.6188150534133827,0.23704165484804773,0.11296241370471762,1.4426613976353129,1.3763601278606763,-0.59269857337342768,0.48924044326295069,-1.1374651732655996,0.44852571232962474,0.19148116660348488,0.26748649100684407,3.0008155123262741,0.23495932502841244,1.4011500886652206,0.14204772044496786,-0.40972812159436561,2.3615588164518648,-0.6684936152684372,0.58507121745554669,0.14301708455181203,-0.62801117492853176,-0.17517605040687712,-1.0147637014462234,-0.026001629044227242,0.7310363674428495,0.50586933362869746,-0.014730617052202116,0.49660519805444181,1.5873332981284287,0.25163650788128805,1.1587146397034571,-1.4077541073140014,0.52522286258489381,-0.13382346602982906,-0.3546990979843726,0.62224868960772373,0.70097249830890584,-1.842027123351984,0.057828481931848093,1.5792082345804688,1.3802571463624205,0.62837882673528489,0.77813393538028819,-0.4932070434746505,-0.31539713215005399,-0.43766862549889157,0.15270778366292295,-0.88594568833352327,-0.48951862835416221,-0.92827705280754214,-0.95467114853246737,-0.41547051628519782,-0.63218168181229761,0.65658032533159982,-0.46514915190820655,0.039133194173267147,-0.48176174167547114,-0.56877212725513404,-0.83804065099458536,-1.7436656941281026,-0.70238261907686295,0.096083022132776766,1.0243717903482927,0.84783174961628704,-1.022968384920236,-0.22408623748176928,-0.89851743071376622,0.81137851776368086,0.1266671453324853,-0.066599624249442185,-2.2493283281022429,0.54510484859642006,0.38830980160335477,0.52370171509390029,0.93827093763543701,-0.22521095605770955,0.54546236178833807
-0.99682154645308829,1.9767386074557067,-1.0059862380630307,-0.12601649642816279,0.54941596653125135,1.1322569582923527,1.2599857503404461,1.189496810082002,-1.0834544251912104,-0.3231173509533955,0.58093853648302363,-0.73391717756366015,0.4152910562310434,-0.31416829218738374,-0.62940693438099027,0.30416112195493089,0.57588695052758854,1.2191221842906439,0.41712485415846007,0.5959819148681359,-0.40971354570205681,-1.298515783291343,0.90427281153713734,-0.28456821670464516,-1.2930864557651658,-0.19550856014276202,-1.4973678984484584,-1.458793150298731,0.35356089589658191,-0.56002405347463202,1.6083310605312757,-0.60580808823013232,0.070312968552738761,-0.54591580409902218,-0.67107256935454362,0.65003770790206516,2.2200473257299103,-0.29931145789711855,-0.99963488050175464,-0.83861080291633239,0.82894796435039131,-0.94635099186073657,2.1053383880847512,0.10025825747903511,-1.382844338011946,1.3891861477737122,-0.82106349754518737,-1.2264861322183991,-0.94639283471607338,0.51663133674545747,0.41326445960404801,0.53134062545720884,-0.49113915524551172,0.89034356918521196,-0.13373618831301945,-0.14561577479398233,-0.82060838678700465,-0.80935591963024855,0.53964647122828613,-2.7864437313171462,0.80014530017924002,0.86527574386248973,1.3607866827146964,0.05510075969928923,0.32413169805182579,-0.93316964554909443,2.4589959171583233,2.2664352066866265,-1.7452014696558813,0.91236822865660594,0.37148114206185207,0.52117785754162149,-0.11169297108641028,0.95765173414078053,0.094731871028531742,-0.46158782204178173,1.3741860470657448,-0.6802871738050712,1.4579518150840234,-0.017920498145037524,-0.76201965270954986,0.47715538152683912,0.50844898507944458,0.035105226226612697,-0.61023889652227903,-0.674758838482856,-1.1589423126868839,-0.32141585689165375,0.2935451761989723,0.27808665484256778,-0.008342841493779056,0.21535407219554531,-0.19841182153413475,-0.62664964335436824,-1.2682990983264359,0.20508543103064575,0.24237863822274944,0.28933411978744089,0.51654540001720695,-2.8838097885653333,0.77951307716869844,0.36965964154445008,0.14402194905635957,2.0104945014028313,-0.25738493995539535,2.0426900179831193,0.61935222341502105,-0.90359505055147571,-0.49415725809322236,-0.62813523312872355,-0.8649766447235897,-1.7719925882178145,-0.89165070163935245,0.42371696727593156,0.029762698859108636,0.54880922776835062,1.3446759162707331,2.2226056294005829,-0.77633245118675787,-0.56206476128078364,-0.20719992407904633,0.32257918108433897,-1.954851752807496,-1.1300418839275053,-0.31134134707918137,-0.48750695950353762,-0.75209150384350132,0.011023639475692277,-0.50895581561793968,-1.3674011801174082,0.68706782319331638,-0.13857581019502513,-0.95915666090964502,1.0808903446206357,-0.49868694524641638,0.49286673008154863,0.49711820393438416,-0.14922525565334013,0.96898077950162742,0.22030597055049866,-1.2230160569984965,-0.43260885192517612,-0.93847659793635774,0.89920991347665047,-0.61965917659332026,0.10222370528169804,1.2891614376916942,-1.9265675832555569,0.34348703222404847,-0.85079824819891647,-0.062002371475581526,-0.9963079620021974,-1.1403843564952989,-0.49794384176204964,-1.3626020633871998,-0.63842627444075428,0.66284383418952475,0.754784826844902,0.30090461480117969,-0.884704462264299,-1.7211377570099271,-0.90889102641439889,-0.58839769930665808,-0.51044551784273373,0.82282468426119371,-1.1338550172262716,0.29993775428921304,0.63645519496537217,0.60149235925374822,-0.0030307153028359384,1.1225846566360407,-2.546575041355891,-0.20627144446482634,2.3799262533780055,-0.12027427752685706,0.03366739554721173,-0.020737598892795393,-0.46328677080793462,0.47391283244493843,-0.58411266429985853,0.15650161759356263,-0.036977447790221565,-0.64983879902042618,1.1096450665584332,-1.3752214060123062,-0.57201659195750387,-0.34539942049216554,-1.1171996871624785,0.1598288438097763,-1.8341096051524688,-0.27479165362011165,-0.055911309426064613,0.40819950326486543,0.1555436365959956,-0.002958686666424828,-0.70808152456815332,0.58333359709352617,0.45870936136977136,-0.51580413655165058,-1.8339671475691108,-1.5214575718463381,0.70995989620780997,0.71434269361433156,-0.63294574624857525,-0.1475505614371953,0.672523648759633,0.42136931168020419,-1.2335836799804585,-0.43795021796682482,-0.81207056387726972,0.67004116082475473,-0.7237961720938213,0.87574044866194867,0.74498324463189902,-0.38026633215812122,-2.7395806078058089,-0.39919920274607851,1.4917320346611289,-0.68659662470138305,0.36353919709700078,0.088978977763638431,1.572071248659394,0.20821767329742222,0.34924804782614655,-0.21574761494402261,-0.13173744762559933,0.33423890957270602,1.5665678264853087,-0.011482427097461952,-0.33371324794892715,-0.25535155671038356,-1.14638959561895,0.91139124192054888,-1.3150969566095931,1.1284150817119674,-1.7910166154808984,0.77424576608168361,1.6229155329710276,-0.87869171759289977,-0.76207727365598044,-1.9272975812003472,-0.081971571145634942,-0.017883819335187436,0.82011605475263372,0.033631419970641979,-0.36683270503318255,0.68693682047443616,-1.3173023831061024,0.65466718577411187,-0.90918578747422407,0.73911672913915216,0.36049397347441009,-0.82872154434225476,0.1549648618652297,0.28641364159639965,-0.26369635666905816,-0.31446283506095624,-0.36566437954863579,2.6797287567133132,-0.17082182744516833,1.612813883454626,0.75363034798096074,-1.4421396937725779,1.552082011116344,0.92385612409852991,1.101809346929062,0.60459215261016463,-0.25423297592735894,0.39422808014372773,1.1559664124948057,-1.6373473037434365,0.83383787738998538,-0.12474217428687605,-1.4644055289462587,-0.45324993722997303,-0.13340601730249907,0.31288044242159507,1.873614444313505,-0.67926148462708336,1.5461759133616051,-2.2551785325278946,0.53269043915163516,-0.5397564597827571,-0.46170108051758318,1.0929595799851166,0.025355067298741939,0.10881360329777563,0.090623617007566576,-0.5936991552942813,0.98034659671403535,-0.58676761704467018,0.69513119148319835,1.2723837662542334,1.0883884238548334,-1.3571000401227429,-1.1192134327155605,-1.3184775281053884,0.10222880785063111,-0.88212252339340902,-0.33060555277353915,-0.2351872746465393,1.2477644858201433,-0.49482350287202675,-0.47084900613812608,-0.58738907702642718,0.43309786578893705,-1.8567985385949195,-0.013878785815979698,1.5209744496858359,-0.4650647678463381,0.57715223564374418,-1.379777529461343,1.572289530359146,0.05411708145773482,-1.1411766876910878,0.54478789578190667,1.8059890094374573,-0.40575342291276423,0.07621509563415807,1.0096679938262125,-1.5195245882621928,-0.023438223353902599,-1.0829146376963963,-1.4458951840360916,1.8209136780200212,0.037112200536952702,-1.5498244010148121,-0.36298873472124982,-0.84073320539975216,0.5661913601816807,0.1637672907410973,1.5667161314221592,0.48560010076311422,0.02060798526095731,0.60779796444641065,-0.40990622232648566,0.8158058365628873,0.44944657419530032,-0.30867320305691431,0.47474578590875588,0.6343602178071952,-1.989261944747345,1.0422399008992345,0.34350536144520188,0.11163083656264683,-0.015615415396270104,0.98590045497150192,0.2989055276796726,0.17629333712374823,1.7719238082539901,-0.17669338170850316,1.3540301277297533,-0.93939741742486083,2.1321661817676039,-1.2749448452788856,0.91488837219591101,-0.1846193893764243,-0.52767364590662336,0.42535483017664028,-0.72366242542847004,0.80700220384224752,-1.0262699375556086,-0.93815613249161267,-1.6183814382482455,1.0001753921154231,0.026988410809021233,-0.45989757701199568,0.96639106662699725,0.39813947977825764,-0.098414036323886941,-1.1013687195334929,1.6805960508262854,2.0343052650945022,1.7322398215255914,-0.08361846211925969,0.27426389799088463,0.44628333792902691,1.0506787772810002,1.6207598359850812,0.12049541796552279,-0.1352458352540036,-0.15460391298738313,0.32736795202416524,0.39593792658063098,0.38761810156278836,1.9636475687642669,-0.82178866811122919,-0.20177190175017271,0.27167817572198844,-0.26745163488243962,0.49434679998224695,-0.30899072030305641,1.2460947563027995,0.99624493685704041,-0.9113544793680135,-0.37833432679370677,-0.86185825375734959,-2.2421060884864352,-0.33761688504768445,-1.3299880813578848,1.0544176305542741,0.099438819818265411,1.4941049868131147,-0.25701387905333745,-1.6081792856451038,0.52221876832306324,-0.081163816412304718,0.097689574240861859,1.5252415575186284,-0.031568356057756902,-1.0036232012353561,0.91671109755336755,-1.1933871564596472,-1.1838652816377759,1.9781975357856112,-2.8007583163994094,1.2093403942859615,0.11457050470709537,0.24782893847004223,1.0199026203721024,0.13083305529907641,1.3530495424227709,-0.058396335355838658,-1.2034634725093745,-0.33618115761074957,-1.1558739603968919,0.13107789060349617,-1.2298446024824539,-0.78162833231734052,0.63478996484100803,-0.50293086696421863,-1.1320312403240256,-0.46904785574743768,-0.47925446195363891,0.28955211035466055,0.1389327828620224,-0.34603984674816035,-1.824606068428579,0.26918380549974474,-0.29632998529021126,0.43839027295831978,1.8395381405459936,-0.16657951289779788,0.089946779123973461,0.49726424868081859,0.009483597068958155,0.010412303332733552,-1.6303390504963604,1.6634045301026019,0.88148195904330517,0.554529876811375,-0.71373459422765462,-1.047710530138779,0.68632034316682466,0.4313728558034215,-1.2685509730013833,0.64728908469151714,0.063476576269503468,1.7447209515791238,0.13422981660592054,1.6367212051786599,-0.91314031100053605,0.65542346800326412,1.5843166698628948,-0.33246817473718826,1.9912943331525002,1.3047663304276325,0.89760977429544908,1.2659210945567156,-2.2329777880078812,-0.70126179081216733,1.762216141749249,0.72319984662805403,0.87558783441946875,-0.32107475053472895,1.3572404180664268,0.32729648410537604,-0.13382685792707841,0.13900570779890023,1.852729212507497,0.22704517171622804,-0.16301894259871028,-1.3395620787145541,1.6155337029428685,1.0080938158086681,-1.2944202630371728,-1.5731399320115032,0.199480621557103,0.60826263283564097,2.8717645944572503,0.3165667412079855,0.59125184780835782,2.6064554959311539,-0.90919768302003201,1.0624642800703388,0.8300643058046715,-1.7780155317160029,0.97989706604356297,-0.03774447972446645,-0.12665295112358371
