-2.0597203922654903,0.018433009022863257,-0.73993226231614595,0.81734044033445918,0.60131410823429077,0.27629268505484605,-0.52367677964039927,0.57143240525005867,-0.24856923627278277,0.0034758550816417189,-1.4318024934784637,-0.10742823034292723,-0.29807279859121955,0.16586001504148967,-0.78833170387767459,-0.65158549825074652,2.328494098810165,0.29653660723848585,0.12117434546190096,1.5659361466648665,-0.5713531592915102,0.0045894825447893393,1.2758371771612034,1.0554136606314017,-1.1167396381287311,-0.022018086693059224,-0.38969824078307613,-0.31434557822281284,-0.17097447110702621,-0.92450772344403187,-1.0573466596484626,-0.58071601484193858,-0.795719961500297,2.1364572491407752,-0.9498624905350227,1.770015858499695,-0.2132894219747275,0.29230339338358202,-0.94673748114707201,0.76971988476137154,0.54562410047987409,0.23091776025663904,0.0055569915742651587,-0.4834230907000982,-1.5186535669776915,0.48358363400134191,2.415139435235961,-0.050934804781423176,0.727121370171809,-0.0099874180328188723,0.64034886961967274,-0.34469007506499566,-0.057455635057996265,-0.23685554310384072,-0.21003584483367349,-1.80167478182401,1.8938768073551777,-0.93916982990985498,-1.9895658777487661,-0.21126081877985678,-0.10734332347361049,-0.80534224852045466,1.486025764418704,-1.3609255830270393,1.9945047600586439,-0.28298560618338586,0.53990357034459935,0.12065109630021094,0.58279733028240632,0.90531937632322879,-0.8561700308466631,-0.57884453509104383,0.71549687653222693,-0.24841868384662261,0.39278360659851325,1.7460451235798922,-0.30365036264040046,-0.54229226022998156,1.0794738523115839,0.53007401847206614,-1.5464787476711963,-0.15234648164590725,-0.25441288851943689,1.1323363441304275,1.1111799297365508,-0.32840828505217495,1.6667863212442544,-0.16137440510204751,0.19759530017624397,-0.6981816400741121,-0.69259659654534822,-0.61633742988508655,0.40214255111717245,0.72121405710720199,0.11805408623168528,-0.59993517113745365,-0.34662935455949051,0.20174716682064478,-2.3117112148873571,-0.1740573869079261,-1.2902403061177361,-0.5185640598341944,0.79451396573577349,-0.24870693834713858,-0.90369055022588907,0.59520239993516799,-0.50806001595865302,-0.68133590624558127,-0.5491029044316329,2.1201050702431821,0.42198003805153567,0.27676187396431196,-0.40245770751974008,1.2155044166996454,-0.27405495828560561,1.5948298058137316,0.16948187427242639,-1.9966900762296234,1.4077477625552826,0.91502284447833371,1.6771248999288799,0.37704208589437627,0.52941235375577789,1.7366027180416903,-2.3190374263459215,0.705573998149302,-1.0731315396445473,-0.072584286180760405,-1.6245853201810339,0.31433353450358054,-1.2037187438815642,-1.9838648826181144,1.1949084987955017,0.94523822701055038,-1.2289801984400155,0.46119163440897137,1.4099938799076739,0.47244018501252538,1.5617645037568542,1.1511991193181537,0.62461722801997144,-1.5001870132556372,1.7476697386694537,1.0847537243398091,-1.2612819941041145,-0.44423166159520888,0.79826272396744002,0.44852059729373761,-0.38463568075067256,0.15256344427730198,-0.61838815755258891,0.40172770994827101,0.88712102496121559,-1.491170669785626,-0.76455619653735651,0.74658905212626958,0.075359377091357038,-0.088105497772673722,-0.86185890668778631,-0.26462241325663138,-1.649148052459211,-0.89507829804242667,-0.33597256879015519,1.9698589524689769,0.41183083296848666,0.8127441041362371,-0.16618598159826656,0.19145764942668858,0.61170957519189983,-0.77167991633645838,-0.98871512136014816,-0.94182463103406389,1.4518298425121494,-0.41709247468943761,-1.6008126981132906,2.0175607271268396,-1.3364029067556715,0.12797336408286281,-1.7280580657618885,0.68352101779102936,-1.2036113978403378,0.91939162292224186,-0.032226712076363774,-1.186816640746279,0.34806549470986781,0.27579287155266485,-0.82556339350011865,1.2208509340947225,-0.93229504398107699,-0.041403402897447768,-0.68391074960540954,-0.57924135860688142,0.88748803537906673,0.51742505670721317,-1.0529081974851819,0.14851146990178815,-0.19156751724809593,0.06439053008611427,-1.2588899930184942,0.82541322871437628,-1.5532438545632858,1.6087715616420037,-1.0036598815274165,-0.41628371164534039,-0.30875928465892283,0.35871920054759304,0.3340968639425046,0.45999528686974139,0.2867126803169508,-0.7874460916321957,0.5587266956064012,-1.3653926098205653,-0.1761281250109652,-0.1873122003134492,0.58353853562084401,-0.50044988110363509,0.75528654971359521,1.6263070243125679,-1.2154182845393064,-0.44408433401161035,-0.2650626571775338,0.2643494754528018,-1.1922097686378832,-1.1984715088517894,-1.4538596248168638,0.18965049198548919,0.90616427555989532,0.20501122264684016,-0.061277042537146047,-0.01082345773068231,-0.99127293127096805,-0.23003043321354458,-0.057735110845432043,1.0522918527377716,-0.099180090804614929,0.84524683553776125,-0.5094753694430314,0.10375226408252168,1.0385952343858293,1.4497712650430321,0.74102572390960864,0.16516300646932872,0.55212391532271388,0.39799984661498922,0.068198891232307962,0.24941245272564169,1.8822426552965612,-0.070354585913496664,0.042715412669476815,1.6736196783604684,-0.34263026905425215,-0.75471973219765232,0.34813353037584466,0.35879410407718654,-1.0369075600923658,-0.061566390951319737,-0.48153548370995408,0.54781820427289596,1.0183310999417141,0.92896607882092941,-1.2586099944542941,-0.5108265568897119,0.38783232783902649,1.4029972278869614,0.22237072154243714,-0.73785528574984249,-1.8496238659298596,-0.33748116252678173,2.8091187245525142,-0.32832900308078666,0.1231807988101648,2.1507689253233395,0.47871448370852182,-1.880976688569806,0.61354532908762038,0.52302650165475684,1.38527466985111,-0.8805179665464471,0.66397202261211796,-1.3626796583751104,-0.64727295506130089,1.0859457577738845,-2.2821395880747781,-0.58179467639089988,-0.63467517946272278,-0.19909011384022743,-1.7755538484590361,0.33254367522058487,1.4705759438037538,-0.30572481412381142,1.1377096424280724,3.0760313215212483,-2.1439371603897386,0.64212626870784562,-0.51414700204882724,0.61234973441967033,-1.2502692482186268,0.1454166996125065,0.99158782951799085,1.8673807773520095,0.83678481993738196,0.35974545726305612,0.33019341612618747,0.32755723473038079,-0.26318152988666688,0.56961947031283766,1.4620449449952866,-0.21646027431826709,-1.2387221607085639,-1.5961093226352052,2.0167309501605351,-0.33875175380804262,-0.713182118452797,-0.37005356846341836,-0.97029697104492818,0.40473961458080454,-0.57811364434075341,0.69705790685796831,-0.71876734254355834,-0.52528847280483981,1.0905923562302144,0.095748243160216129,1.041205226290576,1.0505411566515295,-0.97172026781585996,0.10172284162075063,-0.98464348806424173,-0.34494605596627637,0.0028856909383117245,-0.37672887064042776,0.31599264928911519,-1.3568681143656702,-0.67771413411393711,0.92713876265678574,0.3221386804722895,-0.72356548495814921,-1.8944163730683248,1.5124163788736207,-0.57767101696359302,0.26340178475242798,0.13917815628571492,0.30507694782094519,-0.63797940143498844,-1.9250898722163947,0.35790027078654907,1.24951797960837,-0.89376401888181878,1.0473578946776603,-0.085115299737192729,-0.93704676679703114,-0.33009664405834538,-0.45890933656251193,0.35205180728478974,0.32431482403585143,-0.82809227422914955,-1.0763855633703134,-0.67209903896822554,0.21559046179736402,-0.33732145927115054,-0.35582649404258582,-0.55625116407755471,-0.75673771450553717,0.11359026237669707,-1.208434315842787,-0.96222865425379378,0.62535595503562669,-0.20251873921115668,0.14172179486327971,0.06211308746656543,-0.97430222424886703,-0.27009957647247823,0.049339841782358812,-0.42491573975895741,0.36557682226950977,0.53084293723395715,-0.44398739377769236,-0.032498599170856131,0.10080626365378058,2.9930899906153239,0.67507290066570691,0.68126432262210557,-0.52382206455981817,1.4394022677840979,2.2986029019419836,-0.6043645399003299,0.55735151576834285,1.7850398797998293,-1.9939803466031125,0.71600083992462737,0.070172564496837384,0.085206275311825577,-2.2276482417821843,0.21839833458890467,0.15677779766941521,-0.90047694970066106,0.46085128427461947,-1.526231488355265,0.90916902900711938,2.1929839659580543,0.94964426237879906,0.25571657770475154,1.2304270277364193,-0.94009805855690931,1.3489635281382755,-1.3124027026797211,0.70871485490927699,1.6612405696568362,-0.33665196006064135,-0.32992827790883927,0.16343507250783668,1.4956295220274676,-1.0062119264592415,-0.51185915698909512,-0.16834644425884449,0.46169627505760913,0.18797864143641663,-0.32037503739784579,0.27088003226416579,0.68494293800398587,0.077014658857757795,0.69610758134834116,1.4454574008191416,0.72769685930356709,2.231681762372514,0.96492998564612842,0.11869454716224895,0.47822039880887246,-0.66331892746678189,-0.58647733586822026,-1.3908134115666766,3.0427439628110244,0.66434012058131331,-0.89277906397636886,0.28830977698198174,-0.71151461535917671,-0.21671906770680835,0.10634089973157128,1.3935722077749115,0.68710164732102208,-0.27040601421856997,1.9359191674241654,-0.73242404662867755,0.82519042751715743,0.31435568703608852,0.55597882270114996,-1.9445576605772321,0.0047118844213027708,-1.180964398294444,0.9102221368806227,0.78185177296636299,0.9718206570593001,-1.1281190856929548,0.58895024187201461,-1.5309131543246404,2.2434868191397803,-2.0463313424180396,0.58238982230436354,1.5523954809437255,0.91352125618275604,1.045198175868731,0.58840883462835902,1.2630003873560884,-0.39980225790873863,0.9585895940482092,-0.95331691518445061,-1.7351755642964033,-0.40527174728391741,-0.23788816021918976,-0.52312560923756601,1.4167647416766542,1.8467525354523677,-0.43161232160992508,1.7190735425939461,-1.165130411198124,-0.39079619389156722,-1.6025500006982503,0.72465583704014136,1.3192116461154091,1.6891740400274839,-1.8780667016557144,1.4232705522604321,-0.85885354469438935,0.17943042862765815,-0.028298884663758045,1.7949904378012917,-0.28386174128018443,0.37149700785216405,-0.72694831505295954,1.3069625416516233,-0.69430163468752248,0.041493082240966581,-1.4699030785395915,1.6811732595463231,-1.7238821324561557,1.2696594013251448,-1.4350302876962737,-0.34343747316066908,0.82799726710362875,0.10689351235082017,0.37404970541452093
-0.79509437704508301,0.29375531447078762,-0.40127751174255383,-1.2377963536188685,-0.2841960893380861,0.37970658682234243,-1.720903781454886,-0.44476390673783972,0.848363085403396,-1.1627988688228237,-0.71128535408105575,0.21003527414609649,0.0016146811206358225,-1.0158137190994156,-1.2515155715314454,-0.059496539076551606,2.160895715766447,-0.88032123003277907,-0.49001856569933255,0.2396999991941878,2.0496863934661245,2.1264687446213371,1.560828946611758,-0.065280306566064497,0.60845916914562193,1.4508637038389027,0.53112088516317957,1.4813337607635695,1.1102711875805846,0.52037876608080591,-0.11019680431411238,-0.90345282234827207,-2.285346945396332,1.04463867011706,-0.80530437032803148,-2.129932763841706,-1.1567252455965626,-0.54919726469547614,0.22732083751110493,1.0505397584743132,-0.10619513329975899,-0.83307758722835457,1.1001239181273443,0.28965208206275161,0.96652003804599473,-1.4548364616983056,-0.013744846325205073,1.1701113446393765,1.4040667733198924,-0.66793759761771876,0.91462236219102699,-0.53465485646024935,-0.10568954191363338,-1.2083355447543331,-0.3813144166833648,-1.4376407072524682,0.7201798829352456,-0.94712909063610906,0.28110759962883269,1.947945541657943,-0.95032429398736229,-0.65339662553976896,1.567929331517149,-0.61281280969977758,-0.059939303498908136,1.1708412534785186,0.79770825182953997,1.6484006777756848,0.67325589704052047,-1.787953948590288,1.6597718648234809,-0.1973318475788996,-0.47949091330456967,-3.4243379606499267,0.033711084623282352,0.22273399538166336,2.4956671099107774,-1.403816999316067,-1.1413017002122943,0.62385809518551749,0.04132261600784802,-1.3023079608936816,-0.38730913087424551,-1.3458777306862539,-0.39353065729908054,-0.99378316442163384,-1.377317981927541,-0.20262008012348023,-0.75790372753863466,1.5413488169781961,-0.72379436559144295,-1.1505259350978552,0.048577563639538156,0.13927217483271176,2.1812068419048818,0.85355072059335857,0.55001977896910226,0.3268451784711266,-0.32059258490386028,-0.48816434744799581,0.90248146261833284,-2.3661723739091967,1.6849412453217081,0.0076071311025388156,0.7897089368916721,1.4468739788511065,0.042434223783280892,0.43604736686384277,2.3677144288482057,-0.2783947331731994,1.0122243000356432,-0.68182927576815977,-0.36516566913542142,0.66121894438308648,-1.8191933340427011,0.29529738610358985,-1.0786986941122314,0.056490454211696975,-0.44392939844632029,1.7257321785207882,-0.36035056022932477,1.4826449778591533,1.090696911144696,-0.54136238736490239,-1.07477037863586,0.3287492072800185,-0.11390065290644207,-0.92096072297649334,-1.4026022813289514,-0.1097986427680756,0.44280498814805636,0.75407226044290887,-1.7072334630250352,1.0308071299456745,0.12494725681009733,1.1712376151063637,0.35539293575085235,1.0980432873904051,-0.55661419494433761,2.4087967698789043,0.67597000067952528,2.3640118095574234,1.3726774683039702,0.081871825414011543,-0.39542502256060336,1.0216902253815929,0.11277627899564674,-1.2196265013625536,0.78082945286092087,-0.42764434880752922,0.20851781644510692,-0.33583900883872325,0.47256422134218923,-2.2822401845611004,0.18878484748760521,0.88347140667981583,-1.1082092222208799,0.64298793807781585,-1.1370295546556548,1.9244361071289104,-0.57451907263447055,1.4937668765137411,1.3570311205779257,0.037480722563074727,0.74017898881909794,-1.2532805806510177,-0.78580120849677593,2.150742084096009,0.69873133805610765,-0.24623422685715529,1.7274332800342871,-0.30812708318507237,-0.79034780175805386,-0.4522993011468574,0.022362943202404638,0.13861244038558593,-0.73652631564225934,1.8120049956782958,-1.3517773164738023,-0.65802387409340257,0.54793946873145405,0.064668350522154583,-0.41424684636895309,-0.860737773899384,-0.87019334703141449,-1.3046080024580626,-0.30594164087808645,-0.41273514920413895,-0.1579862269471245,0.1609367204310255,-0.48537973100505016,1.2320094574428035,-0.10452266059070801,0.11389368397795184,-0.78313344259649764,0.20582490244318299,0.56926204896182941,0.057252945028236815,-0.47553278209070499,0.3457055836066471,-0.1353531741056529,-1.8363966404747081,1.2384468961396027,0.48826505310344992,-0.08576619416410064,-0.52677732923976617,-0.88025776902273278,-1.2970260736418102,-2.0372028462861698,-0.24089686997530693,0.72317527364698631,-1.7847045032363926,-0.77518129091084398,-0.38318841655920677,-0.60541733847328849,-0.98333169738634851,0.407562870063432,-0.68502302654507741,1.3047436180939416,-0.34934576136738377,-0.19061051846046928,-0.051307794729596498,-0.32013503746582989,1.6202094029811769,-1.3216030321385366,1.8385013842648121,0.93264830497807705,-0.30620806460670619,0.063073430094691366,-0.50552642767631195,-0.76077083565859105,0.69502752842653448,0.22513290923145676,-0.3354282499022434,0.34991889676497884,-1.3273298037220627,0.90632828464818227,1.6713684187153022,-0.046713288585443567,-1.2576380622684349,0.71346281619877872,0.58330445580933921,-1.2671437092127968,0.17265323804113183,1.1961009042067485,0.079683840359067462,-1.3093014558318259,0.43627013695680039,-0.3370061029880238,0.58397282568386089,-0.80085708032046055,-2.3040397804119497,0.91810497995653695,-0.3350638932631736,0.10429858319217557,-0.49802663636077282,-0.93208459099970498,0.019144746044827368,-1.2974173901973121,1.7814145983115168,1.9042322294030476,0.036358274414247972,-0.043574313729652946,-0.75443653639303609,-1.3299125785457366,-0.31135195976024166,-0.9296991895122052,-0.069922109614749109,0.42920667471836005,0.32867195477497624,-2.4315557491022632,-0.52890597138620821,-0.14934192291766837,0.17530141970957522,-0.53616134746049204,0.4101526563705678,-1.5047290141478857,-1.2421641454082837,0.98125571433521486,0.12726642310594838,0.56236614961452602,0.64698677584242748,-0.48469137292720138,0.7081677928579535,0.033865295931243898,-1.3359406741338222,2.6514134876805362,0.062474808666898356,-1.156042224485198,-0.44042861365374941,-0.4886516583202814,0.92024019383674815,-0.82482193521462432,0.60056912787630246,-0.13682129915837482,0.1057150113230815,-0.968483230013509,0.83399318960648061,1.7418988334062431,0.051882109765798587,-1.7231810730081913,0.73046089155455574,0.1160952208109295,2.105682707871706,-0.59450363780367366,-1.9282731013055112,-1.2437172844426405,0.80561995241966045,-1.5711928684322463,1.014416429910046,0.43500087900954754,-0.036809644803794388,-1.1383087886355203,0.13604415571531164,-0.1896395573073244,-0.078142969474341004,0.88272810271933255,-0.74911563635581346,0.78617749436585194,1.3326798770792043,-0.55578108479740629,1.4587520152710187,0.34832696919429584,-1.2924807098869797,0.095364562828797753,1.0084586733235905,-0.087718042408514399,1.0235415280698961,0.46870638634039774,0.28424294429948505,-2.557223591241256,-0.3597950082383396,0.53827476636970972,-0.37592215387016042,-0.44174706251783752,0.67586334114846969,-0.030301960805895988,0.5396081913958316,-0.41654666616025265,2.5037114026997522,0.1831506582127562,-0.55738388545544493,-0.13165749278492977,1.1070254416760226,0.046168323528054785,0.68128715504804693,1.0174055251253724,0.37491352521270888,-0.91185819982846894,3.8209012482180524,1.0781591562401236,-0.11974447821583145,-0.54698265506700539,-0.25580449405536371,-0.5266676828939324,-1.0891487287131267,-1.864710536054984,-0.50604339103439044,-1.0991549048723406,-0.1419553111056156,0.17305273793140688,-0.37971083410499967,-0.79366689200381957,0.46151206277086354,-0.81951048178610753,2.9340567788169651,0.74450375956853876,0.26147224246564299,1.3214124508446585,1.4380907913864991,-0.56152608543415128,-0.12504437601167231,0.36870986301013831,0.91487173789499476,1.2320701889852177,1.5205557025679186,0.33169016896091402,-0.65381582893639756,2.4622693095722381,-0.81799171659622505,-0.89161459186990544,-0.53462822031495472,-0.58504329674041367,1.8623435046968504,0.33343159275969753,-1.4518078845828855,1.1365047573841294,-0.53214838291890909,1.109300980476047,-0.47208940738597094,-0.75021692946879848,0.60832624071541386,0.25579251342501158,1.4274288335032195,-0.085064293683219674,-1.632729130875243,0.36457781935488898,1.1751615218834384,-0.39263347099039314,-0.25633846727542231,0.0088027544074485171,0.10128895371391108,1.6502247408294968,-0.21193297234672556,0.38115797991822209,0.15056579549843949,-0.4587763192627749,-0.61311549783078756,1.4491883112900923,-1.05606009978535,1.0733570967104842,-1.2061289609318975,0.14005511804478021,0.5680523662302599,0.24354480439028345,-0.57883301197627413,0.71058392594285757,-0.046920510781321319,1.577200979404354,-0.42417469616388209,-1.552870649362968,-1.5652837725868249,1.7126494852701906,-0.65548271847711848,-1.8410241535299714,-1.4006665503492066,-0.046249841881908407,-0.99605965673725161,-0.7275541341968389,-2.3031368438037165,1.0040857832857693,0.30039593429248407,-1.7513169022900996,-0.1357022319877127,0.73220053768659943,-0.42464889794358235,1.4026604024419991,0.44780515273902388,1.7483894004328326,-0.41828057510158889,-1.3176140030995689,1.4413701588210535,0.78553870936536163,-1.1673743591088324,2.8029890430446556,-0.011751488069005746,0.29741069266082237,-0.32780293644227176,1.733674699502781,-0.42713275568573894,0.83760421015886033,0.12079407589300213,-0.79449438852690979,1.227937041835468,-0.83537856167391833,1.6669501985710979,-2.3993083865823501,-0.40869543294902916,0.59794481811066713,-0.81986581727559438,0.0023066030661333015,0.14605706291682508,-0.14933064307871075,1.7914233761661196,0.4168468185138916,-0.24498619717139852,0.95768720457601553,0.48930998502322171,0.48809845257171408,-0.88658230137070648,-0.34507417766361403,-0.32890069425672008,0.17802468350391629,1.6271744731850695,1.0391737173993141,-2.6006208466210539,-1.505790267910474,0.30980313100674089,0.21664921527517694,0.55346470722358798,0.25437117188632058,-0.74616915830523378,0.85962798940394958,0.40203605173066259,0.15785614458048208,0.39282858210382782,0.43468821272611879,-0.053098046097549777,-1.1525550908152773,-0.34192058190992347,-1.3598429007670327,-0.29437431345512588,-0.74594140814643195,-0.0049641338926845842,0.32391893943815214,-0.040693250623779764,-0.52565787604696879,-0.61798151398705647,0.12359160675394755,-2.5932066453721712
-0.06210800166846573,-0.12493580152951551,-0.82632362116894931,0.90200275402096419,-0.23885242505482157,-1.2964082981379121,0.22712087924591975,0.0027363210183946273,-0.61883780895659091,0.66775137357687819,0.38351476510882337,-2.0422302438371314,0.066243745694789732,1.2366007985154168,-0.15506297715435419,0.73680950514348642,-1.4291629500926568,0.54913594112975483,-0.47084707455104147,-1.1740579308610288,-0.2545870379368112,-0.095998310034212844,1.0241363626839026,-0.66667906623427997,-0.31601274275629204,-1.1715843206096668,-1.4343236609434908,0.83390824977516609,-0.27078957449581514,0.11163679626230888,-0.90837391900348607,0.0064082189238431429,0.60309474784865502,-0.48553217247225594,0.91074951245070856,-0.75888615059399234,-0.70363489637147814,1.1924302658520309,-0.03882302171010954,0.55773572169152497,-0.2842051825892738,-0.41948523375914504,-0.79352153911654899,-0.26751733539060668,-0.082319413855142243,-0.18284690054634456,1.1772065912227689,-0.92069057033533641,-0.5227184731911102,-0.0082018695397698769,0.56387601741786797,0.71689623356313692,0.2455950711599835,0.10936760115308179,-0.7803270630519612,0.69270512736070267,-1.1237965525890936,0.2772711511683868,-1.324058337938498,1.5083050037444437,-0.096044667226650421,-1.6301879680224853,-1.465066333470378,-0.029582792287235465,-0.81572485389375682,0.47921060525098386,-1.7663522641627829,-0.11477176013450752,0.92332951460871371,-1.1329840613002746,0.13140509865733538,-0.25214403760209536,0.56674393634601028,-1.1518785614099489,0.19843502295125071,-2.0141393051818808,1.05678803549876,-1.0061325526640759,1.800600244358199,-1.3513082465114776,-0.10476699925402848,-0.48766296393162223,-1.1517843618225927,0.38888022262681804,0.17561887368960882,-1.0086583323271425,-1.6877978559041122,-0.028870273808632881,-0.25302626642277448,-0.069440475570921908,-0.69128599886969422,0.61329823526790206,-0.23798695403967751,0.94440525636134498,-1.631686560403965,0.17534849390856636,-0.68928241227946729,-0.27922683169675516,1.0806194142929495,0.47950809680423778,0.42994621665032418,-0.84981789084395842,-0.36484877838503749,-0.66866232736641407,-0.72979408869517981,0.13218018962471006,-0.67993529536314368,-0.88884889379710486,0.75423871383667873,0.6864491927633487,0.71614681496900334,0.64334678627284692,-1.2186319841306514,-0.69583561579509112,0.5469491340177437,1.2317840891471761,1.0381913570470152,1.4298179559457111,1.1494957579470562,0.57987155733679396,0.10683549818325619,-0.89698461580215827,-0.48815088858439049,-0.52780519752078447,0.50953368733675197,0.59913223362478008,-0.34940756833273756,1.233457845389661,0.2233652891618631,0.50299947995573369,0.17400629871047948,1.6630890205013167,-0.72227726295565653,2.6034385561196376,-1.1697878655669467,0.66467931945506664,-0.15837604059514657,-0.047213419192687067,-0.74678023252719195,-1.1528019662678406,-0.03567844946319268,-0.090477733046682551,0.52522812407222574,-0.63729033728464402,0.59926183443863068,0.86585502144762594,-1.495797307662188,0.95958673541777817,-2.4693637955699428,1.2768131508512544,-0.35621707409864645,-1.8673608352624294,1.6409747344060637,0.053466994216816895,-0.062838830870053639,0.58369221208871502,1.7516600966973739,0.41800494671936628,0.30967526493640513,-0.73626280178959169,-0.27180236665135737,-0.30697720793144001,-0.32485467033032805,-0.84416755070535909,-0.0088823989436721505,0.95577268926374526,-0.034937864320128839,-0.38462982180042926,1.1180801182809124,0.78724998798740209,-0.50128392242657704,0.21520959964173589,0.2810052170545384,-0.066489837487264489,0.060914919950930659,-1.1936594977194064,-0.34892448816481303,1.1816988925106349,0.80561443428941049,-0.71798969029461146,0.47729909834781931,0.51102922385482508,0.83381264936407273,0.32961823050117589,0.38156325505813632,-1.6381214983956427,1.5361676255145837,-0.094532980684554957,-1.14819090661023,-0.80732034411985654,-0.36972750350849537,0.3796940331357192,0.75244198059980538,-0.86702663778533617,-1.219520411689835,-1.2012944941134311,1.108626084582877,-0.051797725183049752,1.4937986718858405,-1.4036863193601432,0.37097617441025021,-0.57238880905909895,-1.6944063635860025,-0.52887535951639286,0.2796623625446531,-1.306807114173536,-1.3436523031086276,0.95564389010682094,0.00024062686186805457,-0.26913313179154852,1.4241304349720258,1.5083960538104728,-0.82481664625271345,-0.16054570071376123,-1.3164528546416605,-1.0068758847811972,-0.35254141946675466,-2.0961787524978144,-1.1652936134006482,-0.21737541804773972,1.478987845192191,0.21655429061923956,0.14937507738893133,0.017830447296023184,-0.85860158378219353,0.23704863935160875,-0.94995369811472086,-1.6617585977969151,-1.6566042544747295,0.14415311304517156,0.94213333913088837,0.63816820173937183,0.27116310231816754,0.44259971919996505,0.59792738996558081,-0.78659554411253851,0.46610823196188583,-1.8313123894616623,-2.489481403374139,-0.098813483782652825,-0.87486991615819598,-1.8249457601490851,0.53297554547936299,1.6965340723143321,2.0647028937134295,2.1938227807155597,0.064630769272139135,-0.59610517204663782,1.477278664342212,-0.75141892398080845,0.7402049026841413,-0.7589359572912342,-1.2141611199764384,-0.32310096852951831,-0.25558924965428936,1.0750808292907899,1.0047059078518106,-0.71573646835301685,-0.019257166491546299,-0.31603545876057271,-0.51683112946130649,0.36853197542678739,0.62701789354466286,0.33897470415562569,-0.63353231221181927,0.11763276068166849,0.89336071516981219,1.5517053726272478,-1.244764260162077,0.8732217154840185,-1.7933348719095936,-0.26246768382416819,0.22983643977543605,-1.0620660476067427,-0.47832499988999022,1.710990709868738,0.15092047583439022,0.6367091934976622,0.51402629794532306,1.7805623588453656,-0.55569253670438201,2.0233898663254215,1.4723698564063896,-0.7634424124138296,1.0290943820825953,0.10288474261734862,0.10372245467583061,0.93890660051950803,-0.83400129571237647,1.2613582526430092,-1.6282196901760941,0.48020242983268552,-1.0183697501321509,0.68183416377301054,1.2943308749484996,-0.24095169713649769,-1.3383923291398212,0.81861564132100473,0.25507744239502711,1.1807822297267607,-0.7500344775344614,-0.49376100096457648,0.61706043940543565,0.8402021415875629,-0.3288135231392843,0.54886057317245551,-1.4895287924882494,-0.88348648257657736,-0.79722167502571517,0.31871576172014232,0.16634216516999395,-1.0430480747900872,1.0162147376571491,0.81343238909883764,0.9351233011045299,-1.005754468896584,0.31150043868899335,-0.54696055401526655,0.13928171416589807,-0.17065908734847537,-0.50308446225566517,0.097127546717882832,1.5286972831820982,-1.110687553689967,0.57589448834235679,1.723546336603716,-0.62430809130630083,0.43085719316147719,0.18011770803205446,-0.20389422203687441,-0.98344285961535471,-0.59518459485135433,0.18261828289555493,0.39581580496066632,-0.77703632256690303,-0.89912819073387307,-1.0365937388352735,-0.95747918799358844,-1.7118155727773658,1.0098158973004421,1.1175176826037605,-0.43829231496946397,1.4586596348960494,-2.700604735543882,1.3540481327348028,-0.130268140094386,0.3315569217679506,0.35997782432446668,-1.051635667585689,-1.7132246404325726,1.0347616547397871,-0.61299899410444048,0.84731039736471281,0.0043058668769264475,0.71480552035152778,0.35081347575014632,-0.47025658460906333,0.31261694662387624,0.081651208230955605,0.13872324105076372,-0.19528212253469479,-0.67626611239878842,-0.55585256379671721,0.96852394153098531,-0.70911446646636211,1.1222381763130675,-1.1070275862733596,-0.73572651794956323,0.42301683853273719,-0.21060595914017988,0.53143279751987604,-0.24184502877854616,-0.23761689395016564,-1.2363907892465356,1.153096487792346,0.34113819271020696,1.2677407108735783,0.15182637620996964,-0.17646642116956945,1.037390185425517,-0.20065355468104459,-0.78217109479780489,-0.5400822864706466,1.0523869363921639,0.89138684363159448,0.94224855053792844,0.43979294422449799,0.41889903596246125,0.26987211957450902,0.78529076333117509,0.62180344744163718,-0.26405240189405088,1.0263999217215902,0.53128986459716554,1.8268217237498325,1.3320493694871867,0.056952250416848746,-1.8792738763164449,0.048248342123036636,-0.89676831390192613,0.18163402877384333,-0.41048936450805806,1.2639063022206571,1.3480119540583779,-0.39005694261685686,0.50597080782305437,0.074079833114232857,-0.26945603543027952,0.67401625406708832,-0.07302947861808326,-0.5036653615367237,0.95776126402593065,-1.978919665011815,0.15601488483752124,0.70286962834834732,-0.025148733472225748,0.4685610414173661,-2.8981507730452014,-0.28742237685971578,2.4742038024780881,1.7642236484544287,0.51507838692509911,0.65138002313987498,0.53753541418675244,-1.8829226800693255,-0.60387391180636829,-0.97458792705638209,-0.5058345926640746,1.0778861234707753,2.5242711280046142,1.2725053886837228,-0.37118656642705711,-1.7069284167302672,0.9774440107946768,1.587787795471248,0.20553880839948965,-0.22817232149401437,0.73402844783718091,-1.8511301797516277,0.57366934081902421,-1.0455903301413192,0.11192210205415264,-1.5612272651238646,1.5546094780118187,0.89769629896594061,0.011576039229124101,-0.39229381649011763,-0.012864270297138469,0.1680948721614462,1.50975581650812,-0.50351930092807717,-0.37471565906070853,0.493200038579378,-0.38519564581723387,1.2365183809531917,-1.2312126339776812,0.82335930887760855,-1.6358879756281341,-1.1620133548068412,0.24000135996907818,0.99974359435663396,0.47812926127451733,-1.1002755239250488,0.82518862169177198,-0.511407582144073,-0.7677298190813886,2.7843444667844417,0.43932760120862818,-0.86020697683508096,0.10561660292486486,2.0078678761169333,-0.84402428662044304,-0.21843371813715026,0.21227476578909582,0.55788723021335007,-0.41038708658279649,0.11116337411228332,-0.48861725180417176,-0.94728966281202687,1.4540010627877025,-1.4466825620760717,0.17983525198398778,-0.13080160169613358,1.1364122249054867,-1.6005211075651047,-0.8978981524459364,-0.60186999743852088,-0.72025760452903365,0.94060336749910756,0.75193116083750111,1.2469873677863517,0.92757766999826285,1.428384908750344,0.42266099961159753,0.22128095320567789,0.64842427927559321,0.63258096881345371,1.2303925696298503,1.6538535453721253,-1.0972887901499182
0.12352376860355391,1.1923742107708846,0.11557695860138696,-0.30141227865614251,1.1017236833349278,0.71296206996369926,-1.0415690978281624,-0.24772065469658588,-0.0098182148019768292,-1.1975263198459078,2.3814116224047952,-0.29449324742330096,0.38857152272417389,-0.28605257379008714,0.45990823232426653,1.0380623194324836,-0.79533276344548576,0.74894916818250934,1.2138301910185931,0.18865176059998881,-0.047627945579126106,1.3303154741514085,0.90930544040868155,-1.8543650434010877,0.63916247948477656,1.3256966898497127,0.066003254448144991,0.94429566791431896,0.17949806290129255,0.083647547490596288,-0.19265693150504506,0.75178966272857994,-1.9070036366910086,0.98919365503745582,-0.26733182474226314,0.46680843660629406,0.82356979511793138,2.5883690979433212,1.4284038910487824,0.71793172222062918,1.4700690620721064,0.80691766760630479,-1.5210467128929943,0.088475084344339372,2.2173481475457018,-0.76003402738643921,0.038248983163184896,-0.93464292784471048,-0.86657121079525001,0.34989799320882103,-0.031784478286211372,1.1056801821375959,-0.33378457239347015,-0.82359522747168867,0.84402532451704826,0.34114371493492363,0.44330080986677922,0.50472422730811484,-0.53128760207376147,0.078946638653652201,0.95879722448840876,0.51978206782717751,-0.39455830286412025,-0.12278736025510147,-1.6559910817138845,0.37559241031794338,1.8566187770680171,-0.15844645977106261,0.58151212456079604,0.030101380059524129,0.20858341733414804,-0.52490391880099618,0.0047947496652050482,-0.69010984665597441,-0.32106062245242994,1.2526637799326512,0.3390600941810924,-0.55267677471286514,-0.83523659346905421,-0.93900691429159555,-1.6769409677505445,0.44509933000229468,0.39645754479870632,0.37503766508435454,-0.75237981042505953,1.0667833808966136,-0.048751256270904132,-1.7472948223085134,0.16681155861014874,-0.043253786118051647,0.83709913525848678,0.81091298687451252,-1.1755011785564209,1.2156109289346277,1.5156836482116653,-0.65750884833606538,0.3376780667244984,0.16361443873598711,-0.59528673323141956,0.40320197175194789,0.96153934955333442,-2.105831229697686,-0.5689656410589442,-0.63872953202355742,-0.050045756348501634,0.42777687934367276,-0.10168998771070763,0.57571820300344168,0.57375205569655829,2.1085243237477536,-1.1454330362444483,-1.1623048078104561,0.040179543182127443,-0.033927512756693236,1.1004899280277338,0.0064300079988901873,-0.42867506184878662,-0.50467594732272691,0.098323874640017406,-0.90318731299734045,0.064081053763795318,-1.5721286172348516,0.094595432269644272,1.0488832821172658,-0.081859892495894107,0.12630802489104043,-0.13190276902998602,0.19153742742313301,-0.485722528213266,-0.67428576233374204,-0.75015226235895471,-1.6270740350528246,0.4319985523112454,0.90386071890387021,1.3018004599130477,0.75766124968648429,-1.8680326389058757,-0.69152437064849093,-1.0098311061056557,-0.63512685817403225,0.31554890942023106,-0.042989644549847383,-0.35163509308990776,-0.55054021033806222,-0.048720753791281254,-0.28868510600363656,-0.032762211324268931,-1.0056069122573246,1.3051577040334768,1.6291741549649268,-0.61430363528535814,0.037820267763119531,-0.051624354426911497,0.34006281092848112,2.3658050336563687,0.06707065796168897,0.21652278951681003,-2.4532444482852189,-0.6455915580272098,1.5664198932711033,0.088678520048987713,0.37647326370427919,0.12791461093414153,2.371809392533152,1.4274251523109338,-0.42108206704934192,-0.13309293169562905,-0.70315138978238856,1.1374807308926904,0.53162338520378338,-0.66834107756674443,-0.55253469820680967,-0.065621192557618752,-0.30268332375068724,1.1132566139895455,-0.2031790769009561,-0.99133720371595024,-0.89903108020580913,-0.57839835298190756,1.7615354544743194,0.00015463895607413993,-0.38377224667162418,-1.3597110152024605,-1.9924934089286597,0.40108351591455987,1.0172158658389869,-0.67559936508535712,2.1605521711576925,-0.41060709887381225,1.1408723967759695,0.57636779140944661,1.7429696645985255,0.42753979591234981,0.99004074117231633,-0.34780159537770172,0.60487833291595994,0.27256458767640984,-0.68391163089645102,0.0023006801986976098,0.99478752593984943,-1.0728262319073774,1.4377110013957188,-0.6428634419090602,-0.58782447231579682,0.45968882192370358,-1.1706352820865016,0.90778980964260714,0.94986071950487028,0.70409998773164784,0.22808796309598403,-0.38238610331082451,-1.3090498715761032,-0.68510402439493934,-0.46341978593546901,-1.4238354095947285,0.32286682455346577,0.47564290163563727,-0.26017853400137408,0.87441202241490157,-0.70118088067183237,-1.0871907533317546,-1.6903612696808741,1.6387774262418326,-1.5945851936420523,1.2285509443797245,0.84757560493335171,1.6729115426827399,0.0040880305866383805,-0.26305237922791741,-0.55867352385585001,-0.28353265420348983,1.383610605562972,-0.015772819010845297,-0.47572171249782969,-1.4168928547524806,0.86945093481273561,-0.18279452716088856,0.69589042540088053,-0.084177267119201232,0.41709097491446973,1.9898861676254627,0.59904363098660462,0.51202108933788149,-0.093466217369898158,0.74325215649695664,0.53274812927897752,0.61209507219320503,-0.60952674155348208,0.59544145670142434,0.38123551713321613,1.93595309324137,0.19667357610460554,-0.32774781838327965,-0.083170942572084378,0.62582737371623032,-0.15270156736462259,-0.4395816851736471,-0.31551590499109128,-0.22254354477964761,-0.29387575027607432,0.29966673310491049,-1.097634204806119,0.14914708950263245,-0.0013118292747200621,-0.22309127226394818,-0.8903326488057719,0.43953472045682423,-0.16536638713313714,0.43513112802299736,0.82077564018326066,-0.61512972858025583,0.28216715783640006,-0.73057461623437836,-1.4820422403088374,0.047427339430981263,-1.4329821571806134,-1.0365879591891185,0.17406286469337828,0.42131418331865261,-1.0365196811837989,0.94538941177679892,-1.5554588327066838,-0.28340968052696774,-1.150694587279171,-0.47671289435180825,-0.80202528636052461,1.3622745972339356,0.87245078235701889,-0.23394569438910418,-1.4644702658594135,1.267397274217072,-0.29492815099149178,-0.74891631732928654,0.41901082915006488,-0.014336022037921808,-1.797846221622055,0.13424102435948698,-0.47318170213398125,0.054065319561177258,-1.0760317079703834,1.431318918241953,-0.57933787326527597,1.6847310077135418,1.213780084183615,0.16615749639225844,0.15974004189533952,-0.46032286376371223,-1.0053479525565543,1.4188839578969124,0.44924506327804226,-1.1827999998279313,-1.1781397845207808,2.0954534665327316,1.7451791431137982,0.58540495536461212,-1.4813783273134937,-0.054509803613325102,-1.2877855739110597,1.8540186012957427,0.87492848386675914,-0.9299167977949151,-0.13677300104636844,1.2573922429269839,-1.8690410155328669,-0.044213117321187691,0.26118465298532917,-0.0029397503384928779,-0.055720672643350927,-0.28900615653586981,-0.32620690490533027,0.68299660381893323,1.3266531332462923,-0.47179468844817823,-0.078590213977631704,-0.22796890166707659,-1.6915421267474251,-1.1290545998289372,0.24759130056469508,-1.409028816127228,-0.5157678534324035,-1.1812764917238692,-0.4672395870706964,-1.8195548748793478,-0.93602906723247858,-1.3044885253237748,0.2965503795066593,1.8329812201409721,-0.72032550568725628,1.2814452428981786,0.35403125537374569,0.46111050240156787,0.047929054143714594,1.8454778722805925,-0.25488886812358719,-0.25954706601241484,-0.42921110389418776,-0.56224812523784473,0.57696067983145105,-0.83605883286903637,0.34533715979247953,1.2015310813020348,-0.11476353465078586,0.015731349970790565,1.813318430988424,-0.78928303271347622,-1.1775541394947959,0.13905194572808971,1.431906232092014,-0.18289611970498748,-0.10354020732087432,-0.67787351183695022,0.21185739036174159,0.048580407968011607,-0.70533630500179167,1.6422264985158197,1.1963343879335924,1.106113260515448,-0.46396841082351664,1.1714459822147283,-1.0120588946952307,-1.2350389155695154,1.2567678321833313,0.71668196350136482,0.23123202382298369,-0.054477245430611672,0.18542083196906223,-0.30617011645928904,-0.077212014851359687,-0.87820879824491493,1.0206958571982541,-0.31537123661521371,-0.80904100064932172,0.45770648513898671,0.84998508797897576,-0.11415207569418566,0.56620970278921534,1.8562381529315684,-0.21866117502524254,2.113595350806023,0.38344157879629309,-1.6513364454678101,1.0850011190147895,-0.39368457855882194,1.1412850275084017,0.4311327277997104,0.90353571099170749,1.438081095794417,1.1098361372329826,-0.041385781478420855,-0.75944111682981397,-0.78493247384416254,0.83251562283654879,1.2955053822440461,1.5130606614934266,-1.197305772369454,0.28618843669201782,1.2828577736821527,0.33081000048881981,0.60367670209408997,-0.66223142199101903,0.36329555695284976,0.2880851346505493,0.4009337931895825,1.3733122906010156,0.93835928741308527,1.7942031277937394,0.29833665201024923,1.6374934265496368,-0.33550203409981616,2.0852016006050338,-1.0098601192120629,-0.48739549001849092,-1.1387627210294886,0.25124222266083357,1.3043583289188014,-3.3979934720151608,-0.0097606956453228817,-1.575140251544888,-0.26364254142956101,2.127445527370206,0.8169312368848477,-0.34558128197134119,0.39928540633453868,0.59035036916259442,-0.1215359296870774,-0.29755832963080897,-0.17877815337264566,0.39199496971864461,-1.556219329516076,-1.1237969683881517,1.5746193979228349,-0.5687317942562492,0.12316352309513048,0.81473310128844378,1.3219371784709917,1.0951761235794315,0.043851883553079452,-0.39236952029436617,0.77472181547078356,-0.96441508141915178,-0.96064881503726873,-0.16782608782150502,-1.1442946139095478,-0.46749116847634026,-1.8169519257403208,-1.0553277535794077,1.2578460761896879,0.15889385473378145,-0.0061418696670594939,-0.9115896657462802,-0.21831242496622549,-1.1671873839918578,-1.1411454572296491,0.947099541198824,-1.7388874463977335,-1.2988125027383099,-0.24841915349610524,-0.98751413232208085,0.19199371106891799,-0.73744888146935772,-0.36494848389223999,1.3333725937006837,-1.1561130042947301,0.4555074351974176,-1.6772213855758868,-0.44558203081213732,-0.25812421151511156,-1.8223270542036378,-1.7155680285493089,-0.55634117404731187,0.29819316512632482,1.4806127908436704,0.25787011905466456,-1.1997903189849057,0.96350751744820617,-0.80457374555340966,-0.58503801241191167,-1.4424765933994672,1.2955727001824762,-0.24609945978209513
0.70816813542406798,-3.0049261307011488,1.5582729999852567,1.1020650888381984,-0.87828170408560413,-0.52123732169918613,-0.037903078215478767,-2.0595410562980208,-0.6915820871837477,-2.4236826414744774,1.0330963400121895,0.91050948203040749,-0.4455440584435873,1.7630209063099753,1.0783318184582276,-0.39322993094311104,-0.61818495676821061,1.1176810492448412,1.5454151396789384,-0.79346563111558177,0.58758111282720615,-1.3388607701641373,-0.96978716924405006,0.44295941773665559,1.7475551696880804,1.0995337048538558,-1.3672773856698357,2.0866579280271305,0.51730703010920942,-0.034768635851128528,0.39236441026408192,0.59964413505754188,-0.45520288016025734,0.024565454073197115,-0.44079301809576199,1.499668341280167,0.88369864757390482,1.417949711583151,-0.62056314046764505,-0.051317913151451261,0.66240527411880723,-0.52526716714041899,0.60595926213799145,-0.79034058111929917,-0.38967028222438205,-0.56088393809222725,-0.83199272117804879,-0.90081412705233888,0.075688114392077982,2.2173845057058492,1.0977340690562365,0.1241670721526632,0.5744112567444799,-0.1599648867012434,-2.5233477440245404,-1.1418823452457985,0.60644140521546119,0.40646304715861559,2.3333036650127026,-0.21093135874702532,0.7507513958839156,1.3889089342573162,-1.0066604160871471,-0.36803799605626758,1.1351223458564017,-0.33869254608073118,-1.0604085632838767,-1.332532691686491,-0.51552125610254429,1.8046747025496026,-0.28245060277444473,0.19734313266438883,-0.33570382268917381,-1.4680019279308336,-1.5872613142882461,-0.91833285249632113,0.43099652484035522,-2.0458064683591419,-0.34918626622503612,0.11369137371912889,0.42400005007575503,0.89608388081724455,-0.25454731518630758,0.8163117636728261,-0.13295928047808483,2.1502389394704098,0.71531827764645695,-0.7414768144265208,-0.6820931770235904,-0.93243348420411765,1.4420190511885802,-0.90032775671442478,0.011900704438081047,-0.4500663980649951,-0.35952720562615437,-0.61511727222973389,0.010264857288394267,2.2755111252281028,-1.0790040301840989,-0.15273671598046712,2.1084270491294621,-0.91459771717053373,0.33732222747187707,-1.1239269506181286,0.41995064306586355,0.053349405533885043,-1.4730450906228565,-0.77375853290218322,-0.092802013255469482,1.2154516646533422,1.6890437943509329,0.034891969773775566,-1.5281865635991125,-0.0093575297651008454,-0.81552891866379051,1.3155761870145399,1.1348139949904987,-1.1580424557803501,0.91378939546601068,0.91693502016341444,-1.4426067760273851,0.029752769926989928,0.92290018114415107,0.46287062948458396,-1.5309533463738065,-0.34053726745449731,-1.0953953984838822,-0.87186974427462749,0.27779102646405607,-0.49544787165996268,-1.2042881168181891,0.5144828822216877,-0.082259953546030343,-0.94758997428963954,0.76021906804639261,-0.66963785610943705,-1.3461003491840133,-1.1715600519358125,0.65629522492927228,-0.7990410731719203,-0.5836959726021389,0.35355622767962797,2.9987041172546673,0.092738210254514661,-0.39073240618792066,0.78846843741538641,-2.2215088828931076,0.2095112834095999,1.8798859470719427,-1.1352220363525063,0.34949382149254127,-0.10876601024087364,-0.82150616008205635,-0.48466943401469909,-0.078416261684280592,0.72748903462874304,0.71964008210964758,-1.428269238708771,-1.1933753166420684,1.0529671606500444,-0.66599100923509524,-0.30115045667399881,0.034867930943287759,-1.2879610871196343,-1.393015790125457,0.41359798276638138,-2.1120892793278769,0.99220773171148124,1.2204180101041333,-1.5185524660976712,-0.032640146777330452,0.22064256533881119,-0.82840781719567491,0.81821031913786924,-0.81757057195750193,-0.27979283818503348,0.79165225286217322,0.064233134236965472,0.069990003103733017,0.59717006339468925,-1.1572428507055343,2.150019277055232,-0.65220950816964562,1.802429447424196,0.38450926868245527,0.28014300794095676,1.061470605662824,-0.38082299402399694,-0.18534722375492049,-0.37342376068205696,-1.9541981793655818,-0.66268278380726264,-1.6955373318663431,0.14917383864302186,-0.58834726413553551,0.55959760209398246,1.3852227829590165,-0.43992354836714603,-1.0040414128165556,2.0703174721364515,1.4397274146391055,2.121497635058875,1.1357520749949335,-1.37258816722476,-0.592689488383218,0.26525941599868069,0.80105844703078732,-0.58961266243801203,-1.6360094562916332,-1.0265795639599888,-0.22118618631648293,0.58877103663884112,0.035178183509970588,-0.41110196278111788,-1.2549599486696337,0.22605693867204502,0.6648412181030906,-0.18625992387816845,-1.0597762066100347,0.84174955218012193,-0.79832419760208451,1.2340460488567808,0.70118608199574017,-2.1280005003489673,-1.448823741173624,-1.1257584258921425,-1.3796195620726852,1.1550514900457816,0.73278069276032209,1.5426682818174466,0.26411594921743448,-1.7135838775786543,0.87309503961259705,0.66795574935983437,-0.7354714931052444,0.69580610081652317,1.17353643756932,0.60848660590006964,1.2801074284110423,0.7070077300945482,0.055151804014058212,-0.51992333599021912,-1.3667564968918653,-0.15560888170056286,-2.5171304748593224,-0.053820529873649249,0.63655610131234763,-0.85502211109316029,-1.1091046336814414,-0.94632843259233068,-0.57339959952053332,0.33523156444250829,-0.29348588169937667,0.32793629591999401,0.87435518389232836,1.3951161449784606,-1.6387118535674758,0.78473278722449291,1.0062263185607372,0.024275186192209575,-0.01690879273860128,0.39125861315597343,1.2798600007992074,-0.22150061441884081,-0.92315478301410392,0.067573217727615487,0.2980079491215738,-0.22373928545627056,1.4201667754839793,0.9605895165203473,0.87509771782664558,-0.48720782930529349,1.0607843444870837,0.16102321089681856,0.83293269892342714,-0.13661323586658589,0.80560664261563386,-0.86442538131855251,1.450784244283237,1.1407540780942105,-0.33175426773012406,-1.2668071346965755,1.1005037060643852,0.19082918447275726,-0.33250989822660892,0.013664262331258194,-0.53738772283927194,0.54208655034611009,-0.57774915792500081,0.26299947931256151,-1.9717851634006565,-0.21869463563981989,0.85737374964387447,0.20553555306632176,1.0127781728942797,1.3553163281282006,-2.0269575950769165,1.3657612223162903,0.15075241724949442,0.45181000292092294,0.014601431932826918,0.50521145836335568,1.1157035098015184,-0.65293691417474931,-0.92361565841121107,0.74068284376419458,-0.66762765940684909,0.052371046680096976,-0.70452195543145746,0.73409833536879032,-0.69668525934889558,-0.14988730316678597,-0.78491079450051537,-0.41752238228495397,-0.5483918020154871,-1.0339246335399948,1.7959064142032983,1.8488522697952499,-0.016197472791250226,1.0751334287511376,1.5374530017266963,-0.22545754249468525,0.033052121404107064,0.57900217202121029,1.5547829409198597,-0.093843125932529081,2.126253053125962,-1.0352305557793395,-0.20471422912115944,-1.1080131838815661,-0.34785520197197356,0.10468497348501275,-0.76971051629111031,-0.13941965499232681,0.24800962099554194,1.0355284123430808,-0.019516431024304771,-0.10945684846403825,-1.6432851416142116,-0.30766060410340312,0.41547680537398823,-1.0717434201086395,-0.51894044253876903,2.147993995604959,0.58733079630448193,-0.25193069016646746,0.59532849334921811,0.18993252095052471,0.47549483299836165,-0.30301320006471527,-0.32113346721799774,0.39748194635001477,0.16307746265011541,1.6037341041418247,-0.88750695622664766,-0.21598386866080208,0.76722179020085768,-1.3215205011620748,1.3523381093069766,0.62063834636528536,0.8685924513568265,0.40293905178137496,-1.1477611640256573,1.2296031765054274,-0.67684994197855852,-0.018488736405938507,0.23040967609739924,0.86937183229383908,-0.13501377333932538,-1.381740115358788,0.44052825319386757,-1.6090673217762643,0.82304735470282164,1.7877907536324873,1.3227904989487691,1.6184441383283523,0.34428288448721039,1.4927862853671037,-0.43622673691582264,1.0002054280367267,0.30264713428295803,-0.28703909942131051,-1.6860863743857866,0.51961233175026256,-1.072556656594551,0.38982254759586288,0.52484457833424669,0.27410587633219469,0.57745758392688273,-0.24364108332296508,-0.14293648920860313,-0.89905467215810198,0.17897973981391219,1.6916131313956582,0.80844198877133222,1.1502127424375517,1.1492558083655726,0.31988883556315012,-1.3003712724604619,-0.91099976689842432,0.44002494952108767,-1.926617273418028,0.39215419859169759,1.1472048708884559,-0.74081232150739718,1.726658019998808,-1.3818785612459801,-0.057322946124795091,-0.31924316033322642,0.72759421604380115,0.57036035899279802,1.0368796393413939,-1.1940039881311726,0.67604131524353439,-0.83094696763148834,-1.231669004839375,-1.0272405761135268,-0.80768071638583261,-1.1822687321929199,-0.95214459879325797,-0.83784989609081828,0.85534946591803118,1.7294388550076938,0.20472730934582892,-0.38180825866774565,-2.2298532132403777,1.4054097712073015,-1.5167225458658702,0.84424291353349712,0.49405862466017925,-0.64842114367717407,1.1891152215668381,1.2522149837640906,1.2571840656690239,0.40696194308510447,-0.36841779154236165,1.9169674503462142,0.30572036540068043,-0.13904283512742469,-0.87092092649337127,0.97018654960291861,-0.3947310958363644,0.83343914696414434,-2.2624435903638562,-0.85581808939189119,-0.37497854746787285,-1.1172536842945091,0.28223228364363767,1.0946143310489462,1.8144263123769235,0.097103897248617274,-1.1793592305427665,2.3212111586339734,-0.55706176094912851,-0.024066391132152479,-0.43864314427710088,0.66015168014450465,-1.1152535520978455,1.6002034348046039,-1.1241281656617992,0.081967601130500292,-1.9562346124324412,-0.86258530427957503,-1.2829313983999098,-0.53854558165992805,-1.7540534008003688,0.76354146876944673,-1.156657359860338,-0.56808877949797021,-0.45130690138728025,-0.79688582449746059,-1.193215860452395,-0.83048343453460616,0.24553264383586665,0.88553850432225023,-1.4345629565177129,-0.47063212787126413,1.4791721672458191,1.4451327041826947,0.93479835509895892,0.88062975287585132,0.34182307875472467,-0.68251638630591172,-0.84515638939934856,-0.023211802762133197,-0.12045257338543108,0.078090433213582555,-1.3348620909672766,0.51265556643486665,-1.3700895153418062,-0.15502137088271836,-1.4369243214507044,-0.7374195494631699,-1.1126376337142547,-0.080792763314017288,1.4562563820224925,0.019938894407539657,0.6729891608731321,2.5382694520776292,-0.80906686550225215
0.68361159232447211,1.4358732050354628,0.95005709841744079,0.063118042427992349,0.59371739211976626,-0.046346428891599414,-0.66001563766402305,0.52504363536585952,0.96067185971431746,-1.4198319332410909,-0.25727293344208479,-0.11305794000018955,-2.2861122533261304,-1.465689761228371,-0.85951311207870673,-0.57631279195963647,-0.69816963218709593,-1.0294897550294302,-0.86635995798662357,-0.83087256105786833,-0.28772344359718172,1.0414053930169189,1.0492361638168684,0.71905221171470823,2.1610448750005635,0.94289165340848557,-0.38648812875708705,0.14781967290181164,-0.42729084039223031,-1.5518217270926296,-0.23647844212559183,-1.7276223877964023,0.30073073187853855,0.45856778920668345,-0.46243219560071935,0.22941350470215671,1.237168517310236,0.11338178386034062,0.090297354227437066,-1.3065233752887568,-0.17536061397751185,0.26563498527924018,0.3113286762659368,-1.957484957515838,-0.37647664285978594,-0.59933449142998285,1.4554514329599439,-0.010907082381916299,0.58022151440031078,-0.50763788967795664,-1.3309185432799695,1.0489176511982488,-0.055960083123757845,2.4021811445160477,0.76014135825939622,-0.043948418441630728,-2.0874949867202681,0.61697755148534161,0.86642393035278031,-0.81367825575445041,-1.0368781085525005,1.9356182480653137,1.9434223976741007,0.98185769623106522,0.99952503943556104,-0.98939803031112628,0.23537951832812778,1.9210644705490183,0.68448748472321386,1.6079910503233594,0.37669095218394788,1.6108492608201099,-0.67721753960931586,0.42545936777510796,-0.46762823573216289,0.97722770211419163,0.071389050234954676,-0.036761141150185195,-0.70648368395413363,1.1798557283456912,0.61329618580455614,1.5571091204064942,1.0012746354453208,0.32118025844053266,-0.2616509623731843,-0.041860500137952894,1.5145668516579822,0.93131814825756987,2.5856798215777275,0.18395230585709157,0.32599750012319167,-0.50560973703958689,2.156785483440196,0.83582230081444964,0.15943977272672169,1.6130260202763178,0.69038083511902371,0.99375628881065947,-0.073066335279675557,1.365958331402237,1.0622064701491645,0.0021947980256910109,-0.21005089489870349,0.76674936969662788,0.51450875110447036,-0.18732761989544897,-0.21999520297826192,-0.26289821448654421,-0.72987900895198199,-0.41134843688355049,-1.0803329425800761,-0.17605165359452146,-0.4677148972396365,-0.5252780126439256,-0.024067086362295365,0.50370314453949017,1.4596897509013003,-0.15202086273572726,0.39983661829490058,-1.1388714585896855,1.4398767961243253,-0.71554954747382093,0.48607538673812573,0.51991192103568051,0.67643982948921599,0.45969052053285758,0.20613625930458876,-2.6582380263653227,-0.098067147044469852,-2.2608717427059837,1.9924244368258532,-0.84293223256576499,-0.81645359678636398,-0.60190487008733573,-0.19260219299510076,-0.32604767139931573,1.3721854788411858,-0.63105242349836455,-0.59433488210593577,-1.5067818768855763,-1.5298949611495094,0.35810552318667521,-2.2530418379173134,0.98009610286804683,-0.39927095182351013,0.57692823654335157,0.46603408071989039,-1.6650050215422334,0.67388495684047078,0.25601216576412184,-0.91238436539035284,0.34376943905526058,1.8101183806698313,-1.8278049326023116,0.216971961580224,-0.98474343005006559,-1.1014814471338197,1.5209647181417822,-0.052173760170991831,0.1489284198502856,0.42798822772752687,0.57510096171183811,1.7262988661127554,0.99232082809287725,-0.34980437809057363,-1.0793933798662254,0.69664659815168717,-0.07822635407565641,0.28709793099347369,-0.64950862030728307,-2.1455632060952459,-1.5042649211223595,1.8076875609511127,-1.9601702997719646,0.18203348048227386,0.76812399378618268,1.4146641701001224,0.23218334654439265,-1.1517028546900279,-1.0283035292366349,2.038305625896303,-1.0891325845980169,0.85815044987299205,1.0663378990892929,-0.085094829755411841,-1.390428956199403,-0.27281985649149981,-0.33211531516635562,-0.17784019019133684,-2.066871432590335,-0.12069968791458999,-0.92567018024672743,-0.91053720505793101,0.66552484869728834,0.99479032927618971,-0.62750941901425161,0.19150853154714886,0.37214721955752095,0.69558697542133663,0.61592809797511527,0.91307325056280386,0.55468123098236144,1.77245348113371,-0.65763612725660359,0.63451156492954586,0.62663395394354382,-0.17732074541158713,-0.45798717618787277,1.7645043744060196,1.1719538788369148,-0.32180899526854639,0.31012001329758776,-0.12208680412367011,-0.99039471938993562,0.07184308648238312,-0.5520866693004608,-1.2175631416432904,-0.26046260942307758,0.5594740939643893,-0.67358191825390745,1.1642127589239344,0.79988114665968191,-1.3146923589401305,0.38567719913752491,0.19478604498708102,0.80929336249587391,0.036159665627797467,0.40732301858205122,1.8879534224324153,0.33591985612382252,-0.042006541885402628,-0.93515133657014249,1.6332465096084448,-1.3207377146239174,-0.56954226341738934,-0.44660767290072823,-0.6575291566225081,-1.2617323287520377,-0.73561309939249164,0.61953666369449156,-0.38433305077473384,-0.12260784982954079,0.14497521752767356,0.16815035117654697,1.8621333438940435,1.2061298280977601,2.1113410819592939,0.53658510246466518,0.022835021313095998,-1.2568853375685569,-0.1236846700221408,-0.44365062795978683,-0.069240959526509133,0.77503110616091564,0.8639051441170561,-1.220858836995123,0.082259674654391379,0.9349709496939802,-0.66151927004737476,-0.2760579318929357,-1.7708116736898334,2.1621205491621094,-1.3488063775812402,0.11826604098454645,0.18032410499391852,1.4644824934038501,1.2547835012350661,-1.1959370177427806,-1.7431679125152617,0.35346781065240102,-1.5726841843457988,-1.9848925347818325,-0.62399231067229854,0.66288148110009015,-0.10278081755906593,-0.67644664827282341,-0.023861267167043787,0.018661799167514249,-0.71831856072950451,0.70972448000293575,-0.91362446190298641,0.74863381587424038,1.0081986981762099,1.9876452328553826,0.50313126983782297,0.60600123041968945,2.2781164075803719,0.12334470755957598,-0.40070883519221279,-0.39792536686879776,0.03463308762276162,-1.0506844331785379,1.4933646040593302,-0.67740885769236547,0.56078120958634314,-0.85372713987636573,-0.54292165463050479,1.4315742769083484,1.3334298017740354,0.43399967963635999,2.6798198799522894,0.92428845073066146,-0.81605653173574366,-1.2456762660081837,-1.7320918640261813,0.33229615338105262,-1.2160498933858259,-0.63160545524160527,-3.2500512478902062,-1.2328708557096988,-0.49730805344419715,-0.74181629573366303,-0.61548946078168709,1.2386597842063416,-0.4213377821384664,-0.14419061828825955,0.81200269219087728,-0.36086333234535395,-0.92959546969259599,0.1252947717145699,-1.1057780815391851,1.6395387075834882,0.8357766952128326,-1.427424239685676,-0.017598259850777401,0.52457832896705336,2.4152213100516624,-1.4361538751480025,-0.59507752167431727,-0.19227600659089963,-1.0284216428475537,1.4067097676204261,0.051146299897879756,0.14120865137333677,1.0793442630196655,0.94190765099205476,0.67159717286985554,1.1386809702761398,-0.39202195269223317,0.032354390461281843,0.43211424124587994,0.30576330575602334,-1.253854034435183,-0.57779786218643725,1.6777008590665903,2.238256292763098,-0.32905146561332205,-1.002768036213191,-0.69335360191729389,0.92225098617818657,-0.058088767059816596,-0.11350853546492007,2.0582180853992966,0.22648043937556994,-1.4354580835815005,0.32613199145587041,-1.0139397796647784,-1.6510240657710278,1.4193755007323396,-0.12758853255196578,1.2648466791728743,0.94129425598959315,-1.0376606270588538,-1.4029097035898288,-0.13189145471066455,-1.5197889330966421,-2.0845148447767285,-0.057169491391259396,-1.6629416578070744,-1.0270621878090331,1.6650339082521015,0.19774347050691898,-0.49349581448075464,-0.3276619439021089,0.57501950149578818,-0.59165503895826532,-0.17054133379856359,1.2502804493091966,-0.59017101662176386,0.28939144500069619,2.6294808147435167,0.43737102962581142,-1.2046498269845443,-1.642385035100256,-0.21527618675407398,1.6073966095945482,-0.56532413342585186,0.77599426017444162,-1.3478642501435967,0.86368723533736658,-0.1322089258385776,1.1965338991777457,-0.19127662682358329,0.94255186720741158,-0.36813119343841133,-1.3526971633045908,0.087127526239303407,0.089672772499520409,1.7032662042998505,0.66433465014534754,1.6296997998113372,-0.070893863129048371,-0.6665238442578556,0.18043779664774065,2.2259102461629583,-2.8182581065437202,0.48360009346932076,-0.75903874910408242,1.2911486139504289,-0.8126098016723875,0.44940841507386015,0.9244962353182643,0.19344344586704254,0.77485725051263588,-0.85337969121957635,1.5505013240632075,-0.42944931656720975,1.2922711207856306,-2.0131415232208005,-0.43776424463327068,2.1210258969508682,1.1365645415768202,-1.8031980867251931,-0.67664348611486902,-1.3451370291814262,-0.56033750785592606,-0.96450287655233169,-0.45399738640448672,-0.26657294773406937,0.70206711308794378,-0.1009411901894889,0.43550579560752334,-0.58490338744619907,-0.39302516523664371,-0.23240534231194637,-1.1349766860597001,0.90639388918626562,-0.077150987298323287,1.6180296129494802,-1.407075310463036,-1.0383373721367417,0.51328148511729788,-1.0301565083217068,1.3854589514723157,-0.8939624057039115,-0.47023759583905028,0.4450256973144362,1.2563563970670462,-0.69301575799077941,1.5073924610159608,1.0970192079692322,0.97306285154680461,0.069729281720308331,0.28376929082403024,-0.58840923952982216,-0.53583561116689282,0.78647425566240847,1.3808978465060409,0.33426032246081955,-0.2795997757756562,-1.2661246976973195,-1.3938483170471907,-1.2017534714232041,1.3226622652297462,-0.12516259504149649,-0.87467584603590198,-1.5977822228522256,0.1255657861752921,1.9165803327450985,-1.9883736719865024,0.74727580988192677,-1.0341572556430318,0.39461917006167435,-1.0351947691878665,-0.28472202540525693,1.4184814675157167,-1.9108839256725776,-1.1591422496640653,0.27137139983222708,-0.44490834922618444,1.2075714944270599,1.4378413567257395,1.4783708564722355,-1.2081819178456743,-1.084399695796453,-1.739437028377276,1.3328648637630234,1.1826968173542534,0.25859547484407208,0.75181853071679794,-0.69226626095092758,-1.0959078921526939,0.029361422779683233,0.78571277478771084,-0.92352334069185993,-0.23255025132661553,-1.75553451358336,0.60208763748862903,0.09281634618593404,0.077559672207827321
0.47423504932063576,0.6180628247960086,0.31012501025373029,0.75763664496396244,-1.3174582776512938,1.5995684681315594,0.1433064703258749,-0.3504676676850163,0.93243738267261012,-0.5674374237165799,-1.1964684799785674,1.8878921804556676,1.3548150973712165,2.0342991559804249,-0.25591555516607312,0.72572097747836162,-0.24436060742931667,0.77390465974901135,2.2056256311801583,-1.262618067595874,-0.81173615310229419,0.41425537924476791,1.4690397476972794,2.5623691438971181,-1.0207182981794285,-1.7401904837880653,0.63581903064865231,-0.36575149013147995,0.61419974362974017,0.13047431777980067,-0.082799055135027375,-1.4271624833454521,1.2215946347127944,-0.80779883114515605,-1.1661943588160766,0.93574134197830816,1.2756146263644861,0.94008528942358149,1.1378302775111249,0.38018977395067327,-0.32565477255574043,1.7164561610209208,0.19448625211229237,-0.96714923233883709,0.41863219138268765,-0.64401728845187323,-0.38712020129036018,0.55811573077569865,-0.65031422349763068,-0.71834800111482633,0.66630023794322157,-0.72350499518716505,0.096586106388744181,-0.059772416191226821,0.086165785452859481,-0.8263954212327177,-0.29600915907566855,0.91394729741756564,0.2812505846437075,-0.062949990452026816,1.6788534742982935,1.1833478179174755,0.34471064738742097,1.0940749553110227,-0.80278068135035652,-0.87333510213215282,-0.0059135763999739535,0.33993206230727313,-0.99800468498418926,-0.68084529614525313,-2.1602934895108805,-0.93890198443614281,-1.4897962690002633,0.51780063304678725,-2.3625082516825233,1.0972075470415528,2.0759277589558218,0.42281829743766031,-1.6954039416622326,-0.46409166646114086,1.2780918579575398,-0.31525970169955836,0.35270776495903122,1.7311393209937618,0.50266125867616562,-0.40474206426833736,-1.6699565495801127,-0.35458397550431803,0.40354142987092662,0.4564191699142589,-0.056244821922267652,0.44427246265522635,0.58532300476955545,-0.48361753635659749,-1.0950938826862782,1.0060411944961614,0.30337234309071154,-0.40077660536363341,1.0045907483906933,-1.2595509378720422,-0.34997041019816144,0.28229231842954133,-0.33874841724444776,0.067351996632365435,-0.27661978002721793,0.82162059246299379,0.60555083248783226,1.85192319210066,-1.5553184371546203,-0.11270494499674082,0.19871517856711041,-0.29576033543120345,-1.1198464564689528,-1.0935325870669377,0.3693271419864303,-0.085934313090510681,-0.42511511157045473,0.077144864795834669,0.85697590029635917,1.0594724810418723,-1.3339538087219214,-0.66102459923712831,-0.030786185730384597,1.2352779186975831,0.33672499399313571,0.99547472909143475,-0.13072971693511987,0.44819178271103599,1.3737156562962309,-0.075775096513849144,-2.5896766217286555,-0.047503786036887138,0.46028705024114436,0.35804818047354747,-0.029539799220846201,-1.2554136480776887,-0.0029725133389805975,-1.4099207048779272,0.85766614666940266,0.38058499558361891,0.98085406165463496,0.75194678776272017,-0.91596085827694174,1.1683788357790268,-1.9155554564421167,0.050354931525433737,1.7361572918297816,0.69744792794713129,0.58278920513133736,1.1460623738494724,0.26727540098281288,-0.72204790189226253,-1.0536913239980579,1.0141549513267769,-1.2228796196992944,0.74453633721131152,2.1893579124267912,-0.059359512390290699,0.59659329955356266,-0.15622196071379771,-0.33181306889189854,-0.95301462211279009,1.0469869518820973,0.64332415447880786,0.8488915900219155,0.96137782554907147,-0.84149554721365361,2.6398970378189186,-0.24362454312351545,-1.9499977405244311,-0.1100106906586098,-2.2634856080647303,1.4301245660619155,-1.3367984485792028,-0.58916557017837801,0.67066111809627027,0.80546237910295759,0.67103903410171506,2.122886167924138,-0.58989944952376727,-0.2362616259215071,-1.2262781396309999,-0.15152950022946288,-0.62223087108871877,1.0016302448833687,-0.40290306929792186,1.2281974346996964,-0.38105706068788392,-0.33328527858209134,1.4778827947898969,-0.015675233698140129,0.68923539265244671,0.64192659077917946,0.57298079944259228,-0.12293144802250003,0.15296617348590738,-1.0292124553236468,0.1824429298735549,0.60978700720441092,-0.43182769715282393,1.1803010482613248,-0.42479443458322935,-0.018650725743904608,-0.49907818577096263,-0.85513522752487792,-0.6792533686110358,-0.4264406426632642,1.290177072110495,0.41681767651693508,-0.52563057022709558,-0.14951059488273591,0.34210645505240761,-1.3069300065256357,0.56233585304390599,0.040722066913745934,-0.63609922103037086,-1.0271049246065256,0.56291087919361005,0.076707419511751682,0.58589614387715883,0.55298431911318224,0.20059868782777387,0.27067252632518246,2.7976898772230041,0.69129177610062753,-0.21259265317321993,-0.49718826018807638,-1.1982772110221478,-0.47467686570191192,0.42112124762971298,-0.91205504962223571,-0.34910559757146287,0.61203290764478369,-1.1171369661234802,1.2238799274241232,0.77029705688501882,-0.006529729715574549,1.0269146507403484,-0.22257173009312198,-0.49796752547401768,0.12521746674651865,0.58754003622723983,-0.37744586104651162,-0.75454274407553534,1.9141601708034337,-0.88624281786104275,1.4838855752731888,0.17343489754296626,-0.58683212582638178,2.2890516499115918,-1.941976172389577,1.0456872143400513,0.8760684971350059,-0.66223898752509414,-0.50766104430270764,-0.97203017906948364,-0.75454050758936997,-0.21030966760729441,0.48348832274224135,1.6392829653000507,0.87512363630057943,-0.084292291174815945,0.47048754628665967,0.87584111896544414,-1.2557602322899095,2.4521917789590058,-2.4018465822338002,0.30695612179988291,-0.66362924265021117,0.24970433513951593,-0.58903962561606593,-0.74476257087668485,-0.81236366766785706,-0.018822680536403669,-0.1313474739855979,0.55727032266596943,0.65949141468953387,-0.95123092686372901,0.082429166822755834,-0.7399001057927469,-0.077165959333405129,0.87277584850665435,-0.44881770078453376,-0.51752505154218442,1.2485839076566847,0.2375848695537402,0.72019375627316251,1.6157570622366524,1.3798612569859099,0.62876522853976413,0.30811757880667917,0.088108851587264878,-0.49871471792263022,0.15132503980760406,0.80900310040109369,-0.42239866892078409,-0.57192127038478757,-0.7316925412441343,-1.5120838798159155,-1.2424084522606802,1.5389846284958246,0.26252988308335695,0.30220966409486943,-0.72579940423558231,-0.37625741582593997,-1.5809856403954037,-0.38652465480626685,-1.123897319359261,2.5618059704401457,0.4719143369738602,-1.8590035030521002,0.2590850637047229,1.7049411492795279,0.31431967786064741,0.17354025841368487,-1.2066455988200793,-1.8128489860596351,-0.9235560059272071,0.06952491309244592,-1.3198902973967925,0.84460934562853696,-0.48448275411941422,1.7258117574666547,-0.24382788848259251,1.2591741812594197,-1.1934300539192619,-1.005660925609063,-0.71862845285367205,-0.14561317912192256,-1.387114724059314,-0.92259265203410579,1.0284357839957967,-0.33153626513018358,-0.36184216919457041,0.97430069003965059,1.5632598315865871,-0.32388985221710287,1.2561991070080991,-0.44604305133460959,0.47489054622833465,0.27841452743036788,0.21793327663052017,-0.35028847289748238,-0.49885857842517445,-0.66978879227850985,-2.6477507468892374,0.059650196397015874,0.54518573299573891,0.31778722570532814,-0.95537939099346192,-0.63063315000438436,0.30835200990144163,-0.26457522297752628,1.1748584573468519,-1.9263928959794703,0.12186049782196177,0.55561471244578886,0.3752285438110502,0.35216380927763136,-0.87001737138228485,-0.021173208854852934,0.81151220334910035,-0.31816139598190313,-0.22234391149247185,1.5651271651042076,-0.80540627138090626,-0.9731800132048295,0.76565948085378877,0.26689019565636446,0.31830601609056142,-0.77388713234603612,-0.31284507831323655,-0.12552598624429728,-0.96940957009691353,-0.83425657501781891,-0.65668842184354004,0.43217711302206485,-1.2021833956265358,-1.8669032541068371,-0.19043103668192513,-1.3656079287115805,1.1032971838758361,-0.79765313946612049,0.55860166162162839,0.66763687414790662,-0.53933957048748671,0.60580426101675144,-2.1849243490501609,-0.5107650636602723,0.52174615392410151,0.58821751397136135,0.57653286056006758,-0.39266482625527477,1.0940816864685885,0.0026788008797119199,0.26322974182682851,-0.55588786770629584,-0.55590914619048615,-1.0103983471106295,1.9013888426695846,1.8784865757275742,1.2106246253898882,1.2147425257245983,1.8885130182995629,1.5357798869322346,-1.26448490178689,-0.11993621385340804,0.60595269109692995,0.00085059319799759582,0.36196406127884234,0.42203103686875304,0.69953383682186299,0.47503705276136055,-0.85970873429046146,-1.3878233056110258,-1.0283241665266563,0.068484108503312935,-0.63093192317545932,0.30421531506288541,-0.94514988152272672,0.11060876194204695,-0.64696045240215239,1.3126624888998675,0.25977994855545777,-0.26429528605048414,1.0314203357636027,-1.2628406634799649,-1.0601941549349803,-0.30510204265555974,-0.2870118210228757,0.1772452800502694,-0.3409383868567224,1.6022371649483962,0.33054252458051686,-0.22292787676019707,-1.7948150774674467,-1.3887253144829486,-0.39653206729206875,-1.9595334364943042,0.69690310849318082,1.0021224056054303,0.62263795652021869,1.3735571450639403,0.25496720308211029,0.48626523645248265,0.31109113230040442,-0.25188326561508317,-0.77207865467523984,-0.73180012673956552,-0.057694039505072549,-0.45435844453527685,-1.0623862122799386,-0.57862334647981972,0.6108777047257008,1.0324223162198114,1.1779461259899018,-1.3804979636989121,-1.5714978058826561,0.64153927931090493,-1.9022757575855669,-1.2303152533722754,1.3814141231890213,-1.7825926635216824,-1.2357439532585641,-0.73736935518901126,0.079561137424536618,0.38367648529182025,-0.043948747311803087,0.7066344486151368,-0.034667511678295508,1.1688885835276763,0.045879752071219769,1.4448901248482442,-0.61544875744667482,-0.63336935689269136,0.45482408580474187,-1.1139971328950296,-0.59025807397720065,-0.16975533795062353,0.65848702825643257,1.0602463531268029,-0.71640024383347434,0.32595313277560295,0.85948904046822894,-0.71042675147852707,-1.6157745710396967,0.81718060583545837,-0.80116851225147223,0.0406865464025448,0.050125713427097776,0.052247058592693213,-0.15359470938348094,2.5317633878533408,0.10441231573568661,0.89450537032095145,-1.393141727477907,1.2102167614251591,0.54861008253242505,0.048224758757498001,0.61028916264104194
-0.88529552839446202,0.84437059644506307,0.12752639147381803,-2.0732813070297822,-0.64292587297576342,-0.041346656406018339,1.3306651028520757,-2.3721795236409879,0.61955221798583537,-0.76811159883502611,-0.90225126233636732,-0.0020622509988379458,-0.08114586423655748,0.1483028725710209,-0.596923386640137,-1.5091782661980513,0.040959437402874707,0.38971080379110945,1.7394996751648821,1.0085289439243632,-0.79461792556964594,0.99927121781166017,-1.1120680922962582,0.82776776440622823,0.69250435067440186,0.43965144381757476,0.25998277932689334,-1.6986524527673135,1.6952099189322751,0.38257381159989207,1.9658534330950193,1.9555405403906594,0.24298187416928912,1.5240251331120138,0.74368734826878702,-0.28979573710941958,1.8591635873405039,-1.4943677767077492,-0.089665385157926214,1.6120195370395416,2.9648287562988784,0.6028252835686867,0.12314458496929206,0.075445433672752166,-1.5645339667153617,-0.74064014051322269,-0.38370432782368735,-0.97253568733049089,-1.2409579458813749,-0.39194660155255723,0.9862504895300821,0.46354816587600645,-1.7919039849034037,0.40585633358402445,0.096731780869527176,0.77701805799573898,1.758344468962276,-0.27488478509400521,0.22796229969092083,-0.52257744394485039,0.26791517772059259,1.9104087485330563,0.18338234873023002,1.9663696959636341,-0.021884208564891611,-0.50511023574400005,0.55461285487052026,0.40106873511106589,-0.81305012619378136,-0.092079957042453198,0.084402304412244514,-0.051616470395925283,0.30175542169081326,1.3465643129703244,-1.5474691906728182,0.015698737023845215,-2.6348787603649835,-1.0797870777662257,0.88247399369903234,0.50439813746193751,-0.33684909504262145,0.93682425482200871,-0.32440898557820447,0.91324508043013541,-0.39387529511156072,0.32581428895547065,0.87041091435272844,-1.8731665335776428,-0.31549451756045432,0.7200426933807762,1.0670341889210653,-0.591330389618546,-0.20604966312363002,0.27196099220121445,0.53321051368000227,1.2871833382776738,-0.26861063925784778,-0.16746086478523725,-2.3968324230213818,-0.44821750378938191,-0.74252886902586301,1.1761784470228929,-0.50401694223549864,1.5262002175528615,1.4118569682002673,-0.98549595390745925,-0.9215105279953193,0.60618029257288053,-1.5869391886031941,1.8592558046277263,0.1506744273206875,-1.0928282247139709,-0.79779581066423222,-0.8381180046828054,-0.43447108930497491,-1.6646913316532479,-0.051273857077966244,-1.0674018850598561,-1.6701281441452474,-1.1357389403969174,-0.6204253266111236,0.72407284884666157,-0.68542310604651291,0.2464051799692929,-0.13717787887640923,1.9114697757320576,-0.14283833693773318,-0.61563779100291138,-0.68411828077069503,0.67677688793413882,-0.45357233193026697,1.8407083379215916,-0.58857883975145853,-0.95214693174506482,0.35717829896158254,-1.9726963086400471,-0.68928664399497541,-0.64928462138474796,-1.493510622135459,0.50933646226629492,0.89596662287211359,-0.60381847978897685,0.92094436523793599,0.12500898808687891,0.23026891405718619,0.24995605503625692,0.83735881939684087,2.8843307230121815,-0.62662010677505964,-1.9517501178124155,2.3035425898584641,-0.59519505965817943,0.64939998274517019,-0.80338735406276751,0.4990277954312084,-0.0017974677405202192,1.2870059455654308,1.3492975734038033,1.4240126401221254,0.11858599785823422,1.6754475507887372,1.5446631173036884,-0.45739818540593014,0.26208400442952567,-1.0159015255115276,0.1485311365558003,-1.3486993642829417,-0.70653264993580078,0.24915734697595263,0.97018730562414612,-0.0048019037705354798,0.58040014382237037,0.86187116578694212,0.038663000612029305,0.087147332332944041,-1.4370096697783072,0.18201016558635902,-0.58260472449505751,-1.1668405271474322,0.17601202305801586,-0.85085914373096949,0.15066540635227652,1.2668979333112216,0.68724103917917823,-1.5348608193603972,-0.083247599015251403,0.48778726289590618,-0.06873953452682216,0.62625762501822613,1.0788898175373574,1.5977179753570458,0.96878227080498691,-1.1391020324207255,0.4719578955914131,-0.3348014765081449,-0.81562597855711794,-0.58325673641728359,-0.64121481674771574,-0.019953725986654083,0.13446479864182262,-0.011235243333385346,0.23390805650733712,1.7672588048475906,-0.082013376645609828,-0.12372165215894286,2.4704150825198998,-0.28562358860567622,0.95051345656557684,0.26607041746299875,-0.74239557469240214,-1.6765836293512801,1.2794918813666405,-0.42452892718688473,-1.0863923214853286,0.91101886534230225,-0.50198291329547495,-1.0324864215039071,0.92590791646229686,-0.075839191415953716,-0.73059725433924083,-0.52320159104884789,-0.74697957866595277,-0.83574819591094729,-0.080137751467761947,0.3679494931762286,-0.66566338061485752,-0.31377938588199289,-0.24909886976481643,-1.0739262935683556,0.24685011839662424,0.78229836925404583,-1.0251316393714536,-3.3706823243362014,0.70598029781997662,0.38980951875379904,0.5233918478074816,0.61800343053142659,-0.80388624098345396,-0.38671407772846433,-1.3843328242678208,-0.23685378629231801,0.28079628080226793,-1.7351138662880445,-2.0939728102407895,-0.52056085518402806,-0.50107118090711822,-0.62105641875490436,-0.74263160911928372,-0.12368660504873812,0.31673511706660318,0.0037909259454148507,-0.47892211416156616,-0.52343304297995197,1.125263827122994,1.4684073079207023,-0.031085386480841231,2.0900048179675714,0.56361799790770106,1.0619489598264338,0.82637785724922919,2.0799378403582511,1.2469343549811762,-0.91551753875305397,0.042633981983399252,-0.0047360092345725847,-0.4175292464266776,0.099111157005265987,-0.23274459815715712,0.05174626752283825,-3.1775916151211634,0.049521883298865664,0.80653799483065958,-0.41603571872277206,2.1764514882556383,-1.1095230863308287,1.5119106910583315,-0.62355322685382275,1.1538176755208176,0.95454673445512839,-0.60752801295038872,0.20544247253644568,-1.4314962622229488,2.4332315084878227,-1.4932454060064071,-1.7236866126016464,-0.7301903313692395,-0.63590515742324194,-0.16244453529651465,-0.75079137490252412,0.33585105788594677,0.54048895627642635,-1.3072717919936083,-1.7196986859614045,-1.1537069377303895,0.28647455133341948,-1.1963686072687723,1.5457956965050477,2.3760825677835169,0.72650683849354558,0.72319760392263432,-1.3025118173665438,1.0864456220513925,1.1901420993609626,-0.64153186962153685,0.27915921182078535,-0.0081254392329198778,-0.11577039429652802,0.13847784296276824,-0.065228236749700366,-0.82922401187279915,-0.63928935363359529,-0.34772491333739552,1.5314596210638449,-1.4959726656368333,0.41105979061843551,-0.42134862400710121,-1.0188570098318457,0.068682149270051396,0.74392136275878384,0.64803614317781688,-0.19848241631956792,0.4505950214022057,-0.045409290882353327,-1.0630077415271342,-0.32290575186360376,-1.3273582488422504,-1.9026289934456633,-1.6819311869544447,0.28023699572814181,0.41742950792144345,1.8842192127648301,-1.1285556251011779,0.32228754468182186,0.75841275893582327,1.1197294460747724,0.3602475972187299,-0.24997080622462761,-0.69774559854916318,-1.2478528614688749,-0.23878527293517751,-1.0837682534602622,-0.47992586077588356,0.96543786549147681,0.55196945662674712,1.1146744732093723,-0.15708811668009021,-0.22937058344907557,-1.1712247455762002,-0.16923568756805102,0.21984719715239281,1.1357712342051973,-0.62204350056170943,0.47439859216727698,0.76831779727225535,-0.19666909766632265,0.1216759049599415,0.17470100541343489,0.58212085187139373,0.49038554519010669,2.1100878958435207,-2.0721375704556464,0.28928852758417928,1.3143228648420273,-0.090606097069836314,-1.1266185404610396,0.67091735244381412,0.76425303616273765,-0.4103301482115454,1.6896590763181241,-0.49349776855568772,-0.2498659848095654,-0.50177428888738718,-1.0190054679627347,1.6835494718095985,-0.95841363886016862,2.0638551400201828,0.90622913329904653,-1.024031121849805,-1.0073373013558056,1.1598837489203544,-0.87979167527209967,1.2499671695476056,-2.0396542196668115,0.10095512623127437,-0.82991759884895566,0.6731975697522059,-1.1751763259630166,-0.5119231711467831,-0.086026661335063467,-2.5206012288424646,1.2732118751105825,0.73425748285293024,0.73012433111030905,-1.1758357021996204,-0.94122904956706266,1.1559585067220661,1.7528764062738531,-0.50502396509444281,0.59590024133879216,0.0012664880054500756,0.22167795083025346,-1.6085536117251586,-0.34813463274551204,-0.036883997405865974,-0.10509730531898398,-0.24585922149570327,0.82708407800358164,0.35021731282790902,-1.0804420985470202,-1.8650531050626231,2.1352213556750033,-0.19882027120904247,1.4709757098389986,0.2665148366019861,-0.9040572222272153,0.055476463512981453,0.94441943523631511,-0.66193119103170239,1.6173919652434916,0.52521472794294666,-1.694006522888482,-0.034638291290670212,0.98910765762928021,0.28275961785131343,-2.386870236492078,0.36173339677283611,-1.5472012830076327,1.593433031545249,-0.20855739579131211,-1.6190724048256115,-0.6856699486076151,-0.23291698027156371,-1.1642788073764925,0.98639745415160129,-0.68125111827917229,0.036254153488293528,0.61720715644588098,-0.13865640289332273,-0.042358790673363386,-0.57086791998456587,-0.48687295807302988,-1.5888591664516134,-0.89229218405854449,0.60468754131213442,-0.51051740914069477,-0.33724732250340772,-1.4694884622057092,1.304214857598639,-0.45537671935885105,-0.91473729946472404,-0.0062266786089967777,0.13752394429295159,-1.8446746547664574,-0.13589220963749776,-1.2548752056483528,-1.5567600177447971,-0.023648441461260446,-0.21473339877209618,1.4462944751158362,0.6034832662808296,-0.84860762492307229,1.3742015906129554,0.37179375180712554,0.32830508276303105,-2.007720226668249,-0.15787282387141136,1.2962310213277748,-0.95419808138652351,-1.3757083027949577,1.2783952045519693,0.33747249104135146,0.3021921425847926,-0.87116402035289731,-0.53189169307935547,0.30777737131041671,-1.6812039030114989,-0.23100485358595729,2.0926005580679496,-0.07663473367126572,1.8830455596819506,0.45561147540244484,0.29114680436752643,0.0093952828386350499,-0.26302273157638578,-1.656294951484746,-0.5551647416105846,-0.94384453657249734,1.0719433800281266,0.80664306156851295,0.94729729432324128,0.75234155761914101,1.1575952450501716,-0.14193970292333893,-0.43155529484595323,-0.91146082578961241,1.2550796354986167,-1.6838297787209837,-0.048139431944406695,-0.40269777539969753,-0.98012330818158044
-0.45515410448975113,-0.75969024122855655,-0.0066052089316746831,-0.022309916698256053,-1.3094294464586849,0.15655312982067263,2.0002851105252217,0.25591940125707069,-0.85325286175311543,0.76101142452810511,1.8448440997258764,-1.836165427419761,-0.31784623867073741,-1.0367899331444874,-1.4711680379748289,0.69320029715128773,0.33961369005425041,-0.37906510451641184,1.163092655262181,0.87014603082793096,0.42610211829347511,0.55926855736839709,0.31558220539997583,1.6424228356990758,0.49549040200990752,1.3312962489874474,1.391490657773079,-0.7797877524753315,1.7775716518322853,-0.75954536565449438,-0.98521645123352442,0.63289282760370968,0.85522884503523877,-0.49002447778650798,1.3055656246866996,-2.1006204272526334,0.73179943958269233,0.42906748458569066,1.7047508482424212,0.44539599149368042,0.46085316660320269,-0.41272384645310622,0.7475035325883872,-0.3404262404771925,0.23517971861151227,0.10086111400704074,0.05427233354766052,0.74106644351143691,0.79271451942133309,0.031280880680278407,-0.58358120754580478,1.2121740051616374,1.1046722303191776,0.96897801409725248,-1.9306323704801212,-0.36511422941151228,-0.34815883844329576,-1.5959604416417015,-0.63820866432475765,-0.027474022600878216,-1.8657097061144239,1.0862789224233449,1.4607539474721387,0.37609427987510063,-0.21003363595169891,-0.08655101660872333,0.67351618445707295,-0.085067702617727572,0.92569436455713883,-1.7938398965821714,1.2619516243663307,0.54328711450831924,0.49943518719181562,0.73531731792940214,0.046444907135041479,-0.6516590709179918,-0.75204214332600738,-1.3435475597364142,0.37308684607355647,0.0019664669524922492,1.077229336042252,1.8066948890003673,0.35855502594680561,0.8305820787709346,0.52956684147954702,1.0175609860800312,-0.42032728615118342,0.59364210132146911,-0.42504052374341406,2.1157793920828483,2.1689113649054597,-0.4786960136625828,-0.018802219587123394,0.86391647241034863,0.2553228533843746,0.28463005918621392,1.7997111091415767,0.73767448304680205,-0.533402228671367,-1.8294661824882394,0.5305307137930575,0.79200519304537387,-0.60233291777912801,0.63878659666630933,0.76510345173026029,-1.107619180244082,0.73637868477665547,0.060903829590992137,1.4660875279024639,-0.51854229461441415,-1.2488551192069159,0.30974118918481897,0.031605651557093231,-0.66468095437443575,-0.4761775876783309,-2.0848957218229525,-1.8589455885814263,-2.397470838163855,-0.20122990493661796,-0.76775490141904124,-1.4502254196440634,-1.0266876818032826,-0.039573609480274496,-0.18146309733586186,0.031810561198872454,0.57905138947472334,1.0024680929477821,0.13224869560445721,-0.31160267870875208,-1.3180531048285236,0.69548886987642788,-0.43306235431933005,2.9858155094277685,-0.12797822302313322,-0.90229852545710043,0.8932957290173027,-0.62858903918398479,0.29577937198913035,0.46196761883804155,-0.40835915589252691,-0.4259143528667112,0.78727819429253065,-1.8850203098721252,1.2482378842350503,-0.059642428205603261,-0.50208043982321038,0.29848502400419086,-0.51774078876577567,1.4564716370193238,0.098444222677239401,0.21457948202086524,-0.72509770389075179,-1.2960145007222905,0.47485152503538913,-1.2782607417676124,1.5309468248044289,0.95524322997144295,-0.036126199449323326,1.8438221965222543,-0.15698862591960883,0.2165794066512646,0.45044033951370149,1.6290282461509882,-1.2247481277482204,0.88913149011720793,-1.2271325053082924,0.32501183075212081,-0.38060762081866611,1.1425999408495686,0.53467508890702764,-1.2108201840008561,-0.78297880696166877,-1.0169043302791319,0.20910932411665201,0.70085314707863533,-2.7418826308540245,0.2593391400278387,0.64942182959603567,-0.72522970052659486,0.091615126649313719,0.013374516634289761,0.49454889003257985,0.57529669410817963,-1.6276453870527143,0.38947915672915057,-0.19056795422625292,-0.8276710827859165,-0.89720101069280178,-1.3111504839679191,-1.4791041830694058,0.58646927354419831,-2.4575473481103347,-1.9127565598951499,0.040016997218532392,-1.5571786872497335,-0.22837308373947815,1.7608214776332405,0.64145558981625617,0.32545739198014639,0.25108403669401425,-0.11721260722772044,0.73349556731906684,0.74612643273815815,0.62858025962534592,0.3956379168148918,-0.37976588466844208,1.7716227936822415,0.88886248840315263,2.1094512388442399,-0.089309185940689262,-1.1973696677150105,0.07855734009374285,-0.68455405293417826,-0.41773959243984349,0.77050989042955664,0.79970366347312882,1.5578454002032207,0.94345954513704833,-0.20700101465689119,0.54215483448652946,0.56645454822666463,0.93829840085810434,-0.77028160489179398,-0.090191014869552139,-0.99647807512112485,-0.14834243892506521,-1.5601112823908221,1.1760375050099927,1.0102077954424704,-0.86522640283370367,-1.4978712993957146,-2.222289915252146,1.4524828759056216,-0.27181883962477721,-0.30281048221944706,1.5164594072514967,0.73906378652280635,0.82761997856003988,1.1312333426373351,-1.0343170945635316,-0.99235977571426426,-0.99359508667123242,-0.18395275324383312,-0.11276198499279748,-0.69265945604105239,0.0064191205501544571,0.44742909631991579,0.7272685908482478,1.3227841074472617,-0.91547139823160872,0.64339356721102237,1.6168775765087973,0.10765595690673659,-0.90788125720815971,1.8363456504458497,0.042760177881356103,0.1215927686835306,-1.7643153526023569,1.0532276725201923,-1.4208697837605297,-0.0045410034275943654,-0.93057651490273885,-0.31193318158126448,-0.56159666426312882,-0.27410692818095389,0.19004764873056104,-1.2565429308613927,0.084406108203304062,0.066238892075985031,1.3583005939728319,0.77953471415728914,-0.45954760983280513,-1.6657817637357408,-0.7809799292291546,2.6089650847316346,0.23637512608512035,1.2361005866914909,1.167215465307454,-0.15407869479507405,0.68156407333821933,0.55280906623163251,0.79624701918858753,-0.39841533654316419,-0.82635032054656909,-1.3833478062956452,-0.20869089587008868,0.2283245942130106,0.21716209564585648,-0.76190838078745704,-0.91221929297979387,1.0064377603860175,1.7677419833879455,0.054108900806862578,-0.07190058704395795,-1.6209837388389918,-1.0702293863472894,1.8371027388948817,0.77910123602481529,0.045613131617597447,0.80920137859719299,-0.9572893149606635,-2.0875504513192156,-0.59343781138631269,0.70956003284034008,0.61191476822552882,0.045701013171656896,-2.0670284337894693,-0.55451312728502145,0.69149279247945594,0.074472310491993127,1.9913188084296722,-0.35562429817986352,-0.16439617386273386,0.046893563595063623,1.0188896261152021,-0.39969330655070856,-0.38697048748328955,-1.9449512554822987,-0.69179869986376774,1.3837666353861435,-1.1055293188171333,1.2590634935579497,-0.23535641883002636,1.3098977110792698,-0.64051394317287003,0.7242081487958214,-1.5342735327269434,-1.308738315749717,0.81252519404254242,0.6096855340116053,-1.4571751506721535,0.33465879815945943,0.21014370550496017,-0.9689354088283576,0.33348917354357882,-1.9222652697069318,-1.2031287758989255,0.60449157037103818,0.53460551894195085,-0.73058026338550019,0.5195437824963729,-0.96679826637466182,-0.16151235595646529,-0.16188688935518211,1.0111236040252729,0.92283947413046441,-1.6379310787392531,1.3980508223474233,-1.5238538821280958,1.7166649390051494,-0.029492529961182061,0.31718622183385714,-1.7781530068050448,0.42057330865311793,-0.10621453978076613,-0.74184818803951025,0.20641142314583533,-0.61334343312654915,-1.0562696127538791,0.82710295345979457,-0.16561212158696459,-0.73803938527871216,-0.42552561123963556,-1.6780491764308911,-0.42541257412138012,1.6770133584747988,-1.6577524982923713,-0.95047680104004173,0.1089418436495543,-1.1113865793412383,0.6391060152859932,-0.095715126648446516,0.61663213769545822,0.83908102818284525,-0.21448919153537407,-0.79765946290024869,-1.8820416107902114,0.48379102661565931,0.39018141681049939,-1.4729657022951226,-1.2844499976801405,0.15738537051324283,0.95652421094830586,0.44793596631127508,0.079336706183363928,-0.20939025686686599,0.17917744720859691,-1.0725520448160095,0.25918304651154367,-0.37137655799211561,0.029569464919301836,0.47900559811214188,-0.29978227405236391,-0.92520431810907511,1.0214544791881792,0.79602587718361184,1.9753607734330654,-0.85277847495767556,0.74850501192236751,-1.0155857704777309,-0.13588216987126894,-1.5504569328192142,0.97487117659737088,1.0193614073137569,-0.68015002546154835,-0.81393047681302433,-0.31217096894963681,0.97963235778180202,-0.28274552803681935,0.20596196946529344,1.697958321127726,0.5423945195731954,0.72250059759324514,0.051426135735782634,-0.49019999201293801,-0.46894492622641937,2.0564596681701408,0.501533868578943,-1.4179917970872096,1.492779049863534,1.5523081106520982,-0.47273108997782287,-0.40129527047823343,0.1805960960896682,-1.2257585331202585,0.4199338608407942,1.7555414465781389,-0.65126389669318663,-0.72844376155122248,-0.70507627169726028,-1.0921927137927383,-1.3440592081581715,-1.7691789461712355,0.068895122749014603,0.69518128623272968,-0.49437765497576863,0.26611988743739495,-0.38006567098939198,-1.0195266430371428,-0.16972791501332044,0.42955323146004809,-1.9957237121910509,-0.23154020354634094,0.16941560749608436,0.82268779433096362,0.43705975529381158,1.4908734530369476,-1.3242255177374296,-1.0616620819394156,-1.0399461850288225,0.76623929667770341,0.43296880326425474,-2.1820351978083274,-0.82019267471439228,0.091147971336787786,-1.6166589730175021,1.5890074690535532,0.92648118457257134,-0.19249615118828028,-2.1934413323107274,0.26206070763008366,-0.58687401058677247,0.24007216002878612,-0.64803282715763488,1.0352578602352682,0.44055335703406001,1.487247766852217,-0.064482956649306949,0.43616912107034284,-0.75880661559770157,0.41576994843722959,-0.70584268214335388,-0.20681849055515067,0.18524852157616883,0.84125996359361677,0.53101206388059119,-0.98169743474678883,0.35913177113889116,-0.77435929858158059,-0.46286024780067958,0.39761655321719941,0.86173615837857787,0.21079809775970754,-0.03692998859902729,-0.71579251433034508,0.65495452620757122,-3.0798893573010324,0.039887506045281657,-0.69775819591684851,1.540493016752549,1.0305620783347123,-0.71113426410910774,-0.49409645309075367,0.055132820447048522,0.33850224516005911,-0.10018287148413474,1.8075244679198139,-1.283942693699109,-0.5187922242435008,-0.07247556933616843
0.60831823374622662,-1.1462804871810626,0.28419655997587079,-0.22745391472577012,-1.9136603715905718,-0.67385844312527077,0.35163906123922695,1.2966866367017282,0.55549551638549111,0.10471153593383735,0.25402495108494888,-0.69659033188840069,0.082692328928569189,0.1877591156221349,0.25318035063782901,-0.24467493137863006,-1.4782291119214905,-0.29285173731285785,-0.77128337189979135,0.60778523776190863,-2.0088418920813038,0.1823406368044547,-0.5095272467619415,2.9560056443058231,1.1858099179797608,1.19639249647766,3.0124385823695525,-1.2014540156954638,-0.52058706375796326,0.27215514554733372,-0.17628828212127631,-0.69165241310679637,-0.36566198052063842,-0.2694970769723754,1.3526322690404728,-0.58839445138568436,1.2699995840588143,0.47261403419104986,-0.94788326687432467,0.24538371166407952,-0.50294162130566455,-1.6781420751761493,0.80888527815570122,1.3726872202575178,0.61252919582560894,0.19752116579345971,-1.2901651735335087,0.14330743030017817,-0.30927900463221975,0.043953956381182102,0.33000394608592093,1.2729727419893941,0.37731080681039242,-1.1096228413919067,-0.097431031735800741,0.23307152896572386,-0.0082968102160564019,0.028353272724896222,0.72137164707074497,-1.7792640834408604,1.6567845730028359,1.8535815680367802,-0.51769658791561546,1.3282902475823686,0.45210061611510566,1.0718873291770477,0.5661244263413534,0.25509988628460656,1.1289533095899937,3.1734552874345598,1.8772286125304809,0.16287043790984781,-0.69529651114265789,-1.0372791658929075,-0.45214741602404512,-0.18738430873604403,0.51510963104209018,-1.0769054483959573,0.30481543344031847,0.59889857331422325,-0.25854151540827086,-0.0070197269882442464,0.00703501879353892,2.6560805777475567,0.84885872058929324,-0.77957641302106973,-0.20771309533643431,1.3968456241896843,1.5227591322625014,-0.21355404745870868,-0.026459613241471055,-1.3779001642969004,0.85701692954498021,0.41347268152193489,-0.23626630633187365,0.22144181391662118,1.2362620033964777,1.155207247038228,-0.23375667472986875,0.70101951979761967,-0.93450716865870498,-0.55288686926231312,1.017261327947653,0.73974361021144897,0.55050301741118368,1.3948678819357749,-0.52785184538276775,1.2304157669307774,0.7950986284936894,-0.12429378852997348,0.52613242580811415,1.4222711441957439,1.8271322194945738,0.50932727851766324,-0.35904318144480291,-0.43806136240532473,0.31861818482681237,0.28667219983172904,0.95790568192786996,1.334567711024508,0.23722473909006556,-0.68700796404591646,-1.6445244450933112,-0.2605525228676821,0.18163272033377917,0.473661215018717,0.053236495349574753,-1.0743239335642103,-0.057338598884233587,-1.5280576699207531,1.7157268448444476,-0.28308166784800298,0.34277783966842301,0.6672612994497521,0.18854817031717386,-0.78560927085581678,-0.74751943061142223,1.5604752195409703,0.10831859272482988,-0.33548844652905202,-0.7851652034336114,-0.3786402379519459,0.056392883815179956,-2.35349550574383,-0.65154266818170037,-0.57583437504296064,-0.082108653784995933,0.49013253772472948,0.53054859412764732,-1.8385860709632358,-1.6319419035509968,0.68398670181581833,0.6176929233492513,0.36411475619018918,-1.7221229188543745,0.69417396584056501,0.34714666396370186,-0.89066893589761997,1.752905232846425,0.32437704181374449,0.14538066144919645,0.49389139464051546,0.29117242060847548,-0.27283025505038694,0.83490318312920797,0.81630993100723781,0.55708731232342923,-0.14216906043258401,-0.67311948461097126,0.38371517484561923,-0.35108156971675941,0.022608911529590062,0.3173756537821415,0.099617019371410945,-0.41490184749531694,0.52526221125910555,-1.2970095678367293,-0.30953873629020151,0.70078403375716458,-1.0325997752486078,-0.32595954962615292,0.39211026660650156,0.82721085892687318,0.21157966101079131,1.9797347924697926,0.57809676202847171,0.46491506416826178,-0.016249807200997394,-0.7359307532551056,-1.7651117876790863,1.1137740244501393,-0.65923418005168388,-0.92489502493879239,1.1889696545910331,0.51327179329836126,-1.8826961095186012,-0.76653932349871312,1.2871191307878849,0.55842650703424868,0.58215415582537389,0.60008655675970346,0.91805285274932213,1.9009258829399664,-0.83067154451676173,-1.6005691994367046,-0.12387852806515977,1.7203439274193475,0.75710350654478142,-1.1075379164315025,0.095428102860073333,-0.51821939771235848,0.65523991169431239,1.2646314813342217,0.57304013167104528,2.2216427106453636,-0.36423044016105782,2.0528336412747157,-1.3259373265695431,-0.86255389157440687,2.8679691001687408,-0.064131575907339783,-1.4132490180129316,0.96952386594485374,1.0158336571501165,-0.62083043676856131,0.27612291189330423,-0.81966494449258953,1.0589361164240474,-3.0545483048196211,0.20792345596415091,-0.82987459896283611,0.082331980429082283,-1.9722744506502183,-0.67264357996351165,-0.73481503685137617,-1.1816378356892325,-1.3799931832948489,-1.1792298753594346,-1.2893300519813806,0.50224216780623721,1.3098275685163052,4.0318745849984987,-0.61262242276496837,1.8028542991576826,0.091373399559596155,0.064192219206335888,-0.63559501779886263,0.037900537385614441,1.2850770584585443,0.50263899815635826,-1.798463917598363,0.18458481387259293,-0.60450051543836791,0.60181549045639071,-2.1813462293821608,-0.79223913369755827,0.02577154331897652,-1.0954436397280454,-0.29293737020397714,1.4377600952621497,0.30483437858399998,1.2617414955474366,-0.64782733463838305,0.42606786610049779,-0.88547951740188224,0.017390657875851843,0.39857287610613257,-0.25076663537926969,-0.99703931372190402,-0.21600046703629586,1.4408632137905986,0.49173303680119401,-0.41448043519197725,0.08357874956326769,-0.36842680245683324,0.56514631453942887,1.0380815671700929,-1.0431731370368493,-0.87765899919701529,-1.9672337589412923,-1.1041737299493155,-1.1346598349126333,-0.8285455250120396,1.3945579300937474,-2.6867699702600274,0.16203453379893124,0.068789266318875122,-0.55351172209846622,0.24373075084034185,0.69529141566235964,-0.00062833675802473907,-0.70153705149519152,0.59430743097845096,-0.31620943749484642,1.1497540688022734,0.20976223254643997,-1.0447422056515672,0.93938833333346539,0.12921203386660987,-0.42943997991443883,1.3329634351107991,-0.99381699588095185,-1.4873233242530655,-0.89415851559300918,0.74330683339059189,-0.97659761563679748,-0.032482545803769386,1.3247006319892169,0.87217261904883414,-0.14342736957515678,1.7530680014969757,0.30153801349773518,-1.7005751448213395,-0.41180962039001523,-0.24431657223132638,1.3917791741363035,1.7811945326633991,1.5614632066133356,0.025961578504093374,-0.17654278146317939,0.35962250741328611,-0.68527294137277339,0.66022238044019521,-0.86361238598287426,0.58932120165722468,0.40893856263091227,0.91800942275032504,1.3743342234368729,0.50499707605046085,-1.528053381981294,-0.17059561209252369,0.074548438279883153,0.24636157672997294,1.9084402815006922,-0.4558078148568151,0.55610806760011811,0.25719687064763919,-1.0126129515540083,0.62690547866120838,-1.2631319829058776,2.0685874299256835,-0.16431429980631385,0.7223420233264658,0.34738173732214261,-0.050676935875392952,-0.35373579653721132,-0.070508559162787643,0.079146459125861254,-0.066705202118477719,0.31524839442441638,0.26575109424339222,0.36108275363061237,0.63027743354068599,0.66883891255333561,0.35503560544133783,0.94264439382032594,-1.1656643465621432,1.3024484032804251,1.0097902100344007,-0.05579507097999635,0.95730073861144716,1.374126667965013,1.7175830445458589,0.76379135835891065,-0.56800457498394352,1.4951025367586326,1.2334669552289959,2.2966588838935151,-0.27188486212702284,-0.092339844772044585,-1.209992561626628,0.30155483609746109,-0.86011220222060403,-0.53541249653513001,-0.26523562790369204,-1.2782025457246537,-1.8307561665335923,0.0026137952728799967,-0.49450364955493897,-1.5438549511358708,0.0067709711180145068,-1.2278588127061323,0.17233716680525124,-0.56572414391899273,-1.2751488441782406,-1.282393463883152,-1.0271099576901013,1.4552413934271968,-1.5647463341381858,-1.2496651566602563,0.28975073552832553,1.3051808599805836,-0.46246368632224116,-0.88501680673934047,-0.84398587884724841,1.2178326409161422,-0.66647222200656142,-0.741596470225654,-0.80743796353820707,-0.39864771330813686,1.0019724530707119,-0.60881690254638432,-1.9288541637244123,-1.1069777745538101,0.73702506748803442,-0.33044714688715426,0.46275706381254428,1.6503586610723238,-0.44644689579308644,-0.88956463182371925,-0.50655854244414655,-3.5267197215042643,-0.67290253111192988,-1.0630683828407905,-1.1845108203864887,0.10583325929283428,0.19680733573039072,0.30745605123194059,-0.18130668401089917,-1.0646596955619558,-0.59412292422570179,-0.90692636221471379,1.5142013346107768,-0.62421988346555635,0.04132489790471848,-0.13964399530743718,1.684558694945187,0.031839253649303685,-1.0251491525542178,-0.55471929049735991,-0.35232314169575091,1.1441505362720901,-1.6794968372563557,-1.880024594170969,1.3014734749446102,0.40720810448596501,1.7861511684467695,-0.77190418424177809,-0.064868629387237003,-1.209878023405174,0.34881544330072789,-1.062316876165261,-0.24703743487363611,-1.1430891426569196,0.64471754329442821,0.79138860640981745,-1.2684012812601826,-0.64581381720402786,0.64831931633258133,-1.4261707993770607,-0.17415221653457275,-0.079559026851971359,-0.20933063102487937,-0.75892939441766605,-0.49160913524140842,2.0949793145862188,0.16055661071150246,-1.1307739618687482,-1.4010453244767487,-0.080873594082410641,1.807064502298291,1.9133555679693879,1.2186117793752584,-1.0075343329242032,-1.3246762361285997,-0.43947692296945617,0.12144163874132057,0.7163547579878935,-1.1074093137359289,1.319378792698765,-0.59925508582911025,-0.4304451451988448,0.34894000567343197,0.56313679299913799,0.99771683454549887,0.20346728870259098,-0.50212138185976718,0.14934659298742084,1.3453286033628977,2.2147959610108856,0.5402402614026458,-0.77973585122105682,1.2276107413532837,0.50952790277157245,1.2084736441217467,-1.1826380331577711,-1.7943768335378745,0.12694062689331509,0.52190804011991421,0.96948694026200011,-0.6228324719484708,0.70937537070922463,0.37408786611851291,0.55152611697771059,0.20145751626809566,0.055619157870362805,0.37253869073225127,-0.97571780367956906,1.011897166501015,-0.54797268491746587
0.82222205422143146,-0.63839076359574232,0.38163969193120695,0.57239668370523689,-1.7831892168133159,-0.12377295811278184,1.562063059342923,0.63625790476825095,0.20403674650065962,-0.26520157334490735,-0.14264610423284374,0.32157825807313528,0.96840180330140335,-0.278844226082684,-0.19275741360298076,-0.16389288467747481,0.92717732857848734,-0.49692370907074307,-1.062431854146817,1.6997135084529749,-0.91626261178715518,1.300759985784778,-0.21280435393463878,0.8658854424923087,-2.6226888210097328,-0.18952868271037548,-0.16117973397650273,-0.74341121797544685,-1.2164952863222251,-0.19905676981478865,1.6283184633115533,0.71015484219855451,-0.28576342618100664,-2.0410796779566445,0.013886769644349428,-1.8178638785451151,1.2923945689424075,-0.39604212546843626,1.389763155411555,1.0108222095422026,0.23030758210954985,0.063493202215134201,1.3729078789013829,0.97272392149147513,-1.2645276614460279,1.1943257884139866,0.35462088182641988,0.82279635167290555,-0.48172426956937864,1.3641902855723225,1.0820755463693239,-1.7819366768254998,1.1979782979888254,-1.1828821903764397,-0.80477950891729955,-0.4781335214710104,-1.7912185603290338,-0.34893658656655985,-1.1795965153268528,0.5189478934884777,0.84696235148898003,0.69804327500292007,-0.39797376599753598,-1.1235754357412362,-0.56131607742931089,-0.64348782050268394,1.6704916764582451,0.23657886428555328,-0.14157785799889255,-0.64308587585934773,0.32699699389199383,0.6389268470221795,-0.54567250467368877,0.13918348826356147,0.24686291829683427,-0.77417680873762762,1.2962627297336506,-0.47992827942680732,-1.9784787466227436,1.2848934708432438,-0.21710223924813443,-0.29418742033485479,1.7547956529922624,-0.90330878304883,0.23728369440082966,-0.25860524244855065,0.95107324689461137,-1.1297115154369275,0.66603414208923617,-0.92449677380422945,-0.9608196517903943,-1.3584629908491936,0.31807502442017338,-0.47980138600440297,-0.11898117087435391,1.1240651216594011,-0.91987032677954328,-1.1181938225475709,0.72969621747220126,0.40272014339138945,-0.33257441608741267,0.80058198661455249,1.158060277376739,1.1100472526807554,-2.6593783723938058,-1.7003276185362877,0.67835036897530643,-0.70251385525692289,0.030774323304981227,-0.76646307438557992,0.81984041969714483,-2.0751351070712061,-0.37428408227788851,-0.31175411164201838,0.35382762324804828,0.44076675067212284,0.18442237914311471,0.6934361972276889,-0.23825042714489389,-1.1182978394310987,-0.024330640418660204,-1.3290497751727626,-0.66320245877364725,0.21357335361128671,0.19866564483461374,1.1319177106365172,0.51120974187707957,-1.3779691161702792,0.078522664739294937,1.1519523179319757,1.5897502430010935,1.2536951982181825,0.35383586831913466,-2.8309983051229817,1.6781496145749861,-0.56792379310483609,0.5028144896658463,1.4952299282886963,-0.601885842199823,0.66776146327886599,-1.8544729918696292,0.59018531899736582,-0.58417651375931312,-1.8054613404740734,-1.7591751790013688,0.8466479182707688,1.2545362911869038,0.014948528586616147,0.16487525826628899,0.36106569546190115,2.1740470921563553,-0.14244369276855642,-0.10176283947837798,1.6002379976613661,-0.89909097316665354,-0.98281896086853804,-1.5029667771230524,-0.17014975702291341,-0.52831928547767204,-0.80904277296231819,0.68495943502816925,0.80360957656465981,0.79968808245622491,-0.42705381710998275,-0.57506298445289616,0.0035577554615895263,-0.053001866756946563,-2.639689604427188,0.32129626152335899,-0.62728509748759675,-0.81731770810356619,-0.92064446540422396,0.31366482906268656,-1.4100773640658266,0.063506710902271654,-0.078730775386304866,1.6047464763079755,-0.048375286215564008,-0.8564377052047214,0.68115064706417638,0.3609255657637146,-0.27426732206921695,-0.38641234744428454,-2.4090201298310827,-1.3787379390439642,1.1311178172265726,-1.6106975106628423,-0.78466889471240808,0.57046092074858801,1.0331534013833965,0.68286016152905782,-1.4785505281586122,-1.7413722313190623,0.1035453478470386,-1.7704378069725284,0.21370209030062534,0.5140536488463836,-0.28320826289306889,-0.2180220014595852,1.2838143911857398,0.16000245566330559,-0.72347690061800529,0.38355940026595048,0.94284332477745303,0.22565437363617324,2.0819432872139689,0.73700374708747307,0.15536985181557378,1.1292801369085843,0.36708686751831937,-0.05034807691157147,-1.2785524445636556,-2.5990739580546136,0.84118317254916197,-0.075450756651749912,-0.62924615740908407,0.18541540995146136,0.99100201640582797,0.046348922848807469,-2.2247220798881231,1.1003777353276925,-0.27489272373696327,1.4120870447494094,-0.57047557463849297,-0.67179870693893451,-0.3331498151474615,-0.17723260076836198,-0.57161643620701275,0.13790094263845179,1.7526283389457034,-0.55585028034818174,-0.64263760445619333,0.095263680552781824,1.0079058059802577,-0.37511745446226463,1.4922693875967465,-0.87730937699877032,0.76585964918594018,1.0103062670620302,0.66387017192341691,-0.17788983080843387,1.0876531671063667,0.75757605505295555,-1.7031265362999128,-0.028129907002723352,1.6483697555815804,-1.108123260286092,-1.3513881738247304,0.43528988388314055,0.69152922434473307,1.6018129709752702,0.28691108295493084,-0.47346500482582665,0.8841705127007472,0.87136410177205381,0.012262146342823585,2.0344770576925391,0.98993564668531908,0.84244370783999722,-0.33501690769007164,1.6768134504411134,-0.32317607193940884,0.128159494631642,0.82366116100517595,1.4980207434100306,-0.16749018811835917,-2.4477844599713254,-0.2572835504617263,-0.093300263251796051,2.0932734116113569,0.15121781786705671,-0.81281613602511904,1.4130808674745654,1.7120478500771523,-1.2758859437569474,1.5212527580939774,-0.58309218948858921,0.16386950085964833,-1.4810120134188951,-0.12564641675141897,0.36269493063596997,1.0372620383180906,-0.23338618220226803,0.70714759307257924,-0.570576586359272,0.5597696703922046,0.10872913530119618,-0.033837118980892596,-0.55076062946501747,-0.59951404919171292,-0.19579291744296853,-1.9975292794267965,-0.89915929894532209,0.6271671153808771,-0.89656978612359406,-0.1754607716351676,-0.039345066293726055,0.21136049743885313,-0.23492681115132011,-0.85176937566738808,-0.38849429905066785,-1.2720934923315106,-0.44438484337737982,-2.5552595270885514,-0.76739578891581928,0.17646003396145366,0.86646101932544795,2.2837410859517857,-0.026028330365625536,1.2121156773325301,0.19282778623805616,0.041280887217142292,-1.729351522815014,0.18199768815207706,0.70895294168452039,-1.8409732537849106,-0.73660720919496359,0.071449234055088573,-0.025594672706326645,0.045692820862948708,0.13442840161127681,0.22801939315076122,0.082023719134541387,0.53546414414936627,0.73819650786485536,0.53680683285314279,-0.84658789971918436,1.6854860117720998,-0.30517954410522835,0.77985092475976714,-1.2677439249821214,1.5450320194347831,1.5734029360452586,-0.87869727047725377,-1.0011640702824824,-0.74951002947498269,0.52566084108164968,-0.13502197854434619,-1.0057622671534003,0.20643813921739493,1.01988466483324,1.2609210180514776,-2.1385010468372219,-0.59772697139064623,0.82617936881078469,-0.67706680046175161,0.44081702305025111,0.29929913535505343,0.34533393549249247,-0.40684081678155365,0.41175353637791862,-1.158061097916038,0.58373705850496782,-0.60773939485355954,0.9678696553613112,-0.62922619708707472,0.706812969080713,-0.14550007410222521,-2.1449708907073437,-0.57784479416706924,-0.66042980064168944,-1.6761791198259977,0.34967606701755832,1.1914980195312612,-0.37852404929276456,0.79927443083636418,-0.52809952672458005,0.74643008745099759,0.88084605858832565,0.89570519829240069,0.34258493277114144,1.4653233417700602,-0.643326608676832,-0.14119394461638068,0.69376229777228759,-0.38785538763178246,1.3162092246415176,-0.26496795442842941,-1.4313522017733094,0.82798706491204854,0.8929417379928436,-0.44613477173959132,-0.67393134038075442,0.54188222024633192,0.21848818088956443,-0.70998588890143621,-2.5148271436900953,0.29377732478202445,0.29822828457736811,-0.65206247327618516,-0.76853384349068454,-0.18660694987456766,-0.3788160090314075,-1.4542083307777411,-0.25322894077831287,0.56865690569824723,-0.28842997881686844,-0.20564687928416628,0.20022568671123475,1.5819250796926323,-1.1717425938092925,-1.5968581830159334,1.264332089737094,-0.47947056183251491,1.7737668503289123,-0.97944813729889257,-0.86349075165701195,0.019215811100592655,-0.92497242754630327,0.55801685216537555,-2.1251247283610142,-0.58509524526747714,-0.28451119582619666,-0.73672393143810799,-0.83590065146847325,-1.9652868866522106,-1.1029202868151886,0.14481244088972664,-0.19649959163965094,1.5670581450189993,1.0831227278740054,0.33606700384922866,-0.59832395004871886,-0.39846073541808585,-0.79515031110161238,-0.644577071828634,0.29820198720996216,1.2771722437267319,0.78544816109940752,-0.61800108065455917,0.28716053368646616,1.46290819731163,-0.85890183262724684,-1.0416759022193189,0.88584002180049071,-1.4442168788559995,-1.4279037528205611,-0.58456718643071715,0.35355358195428066,0.37198050136607319,0.49849308180704344,1.3946370536071628,-2.1985810690431666,1.268364903653451,-0.86133336756211087,-0.78746053206449074,-1.5113140650513157,0.46016565204903909,-0.27851496845300955,-1.1855593108335167,0.13095578672843566,-0.49822321201704045,-0.82082321940812208,0.65070596936417191,-0.80707750074305584,0.097778237823023112,0.51243539459236287,-0.65294123294587925,0.57887010879680512,-0.90455044418972674,2.3668824235834958,1.0465665964542621,0.75190881557512546,-0.65866672661930081,0.74777154476377172,-1.5228001859882927,-0.9349270386553189,0.1010045641421764,-1.6947755182175548,-0.1521906803744314,-0.56185320962486096,-0.054484522006361835,-1.6879101703901249,1.0366150058443007,0.043896185180242124,-1.9712100767068617,-0.0090198055234339027,0.94163362529949024,-0.089194218482503834,1.2630783335399618,-0.89249293397552232,2.1912013096720351,0.5946432412459125,0.53272859491845248,-2.3682684412093504,-1.5578968507274351,-0.043222150857930818,-0.8047729165077675,1.4685835773497418,-0.83447643959562989,-1.787119292510162,-1.7141762123433966,1.872521378398091,0.49987536320339121,-2.5403660982033469,0.36209560660379503,0.029899125432273407,-1.1421867358713229,-1.2769449982296905,-0.28338647692560054
