2.1241663699626834,1.8480189824933984,0.10207785168208952,-0.96768810634398406,-0.70338427550536509,-0.40972593264696955,-0.52318030621739853,0.25385551960545444,-1.1884434417609062,-0.87503155652140363,0.015952642048264642,-0.29411706099248541,1.4286204517564296,0.34046835164072192,0.3159838548659325,-0.048589100477204397,-1.4410367817488414,0.15795143227732455,-0.35470041059011398,0.28084637301077509,0.79050431148463673,0.47168110711341371,-0.4711146184800038,-0.69881432364354223,-0.99921437044616068,0.66573811396987004,0.58202364124624628,-0.24193689992432324,-0.62893506209873939,-1.6046857976487494,-1.1492149634885918,-0.88619141106831234,0.93885971158683745,-2.0236237647387698,-1.5990729141081692,0.60381319695276281,0.47560605484646312,-0.75574635692615033,-0.024388204875211109,-0.18456700618335992,-0.17921904281956114,1.1089771557069048,-0.33438911622270873,0.56714383621463049,-1.428939531971344,0.3427867197819347,-0.064270439964955905,0.094544449426610305,0.46502910195422714,0.61867835691864537,0.99743230479011502,-0.16462094324954593,2.5428032210268801,0.7835385791156747,-1.2249422755881383,-2.4646553930483233,0.20823716233807696,0.16626404674526793,-1.036728368151802,-0.34533376398043431,-0.50760544576351763,-1.2310392524661244,-0.31171475626397338,1.6193669730653639,-0.44583873456693501,0.43046121418484778,0.36035484363424819,0.11088466939964377,0.13780901701199019,0.44401794187145194,-0.023509091679249115,1.2257218390406381,0.57679436048292843,0.23928892564444437,-0.38928394746606826,0.67458204609885175,-1.3857350279708531,-0.13979745837146693,-0.82490246880094698,2.1310931752419027,0.2827428359600786,-0.49894669405300096,2.0724461778974002,-0.13782833961832469,0.33336390484292117,-0.49751372427542678,0.64147465465764086,0.4270341559044728,0.98230093763253734,-1.0755555923206537,0.57036310306412819,-0.21188826207540595,-2.0292418605562248,-2.2488820654159105,0.9871594433869183,-1.1991325594601543,-0.20399326242051266,-0.87346046079863049,-0.044168805612691757,1.1247475477396316,0.011162310964871216,-0.48203234568334968,0.0048161941862918381,-2.9154327378036631,0.33500336795034791,0.076215233062919288,-1.4711570185562564,1.1492083717496622,0.46617971801780667,-1.8896413926592723,0.60651820980646909,0.58078716955625742,2.5673371360174388,-0.4030049190212131,-0.22895359911300683,0.030128737654824732,-0.32430495816022098,1.3979473766776724,0.79906994382879382,0.67457855959055124,0.17330746850730075,-0.77440946461094395,-0.38024778782505242,1.3521877962323938,-0.24616924023727355,0.87580139746100261,1.3192499615511861,-0.5527568311566271,1.5247033731302664,1.6081524093690265,1.1244809723521612,-0.36614672162832684,-0.21385012732340306,0.87023592703849817,-0.25436133349396156,-1.2390393462661311,0.40560576133213661,0.2731419995266518,0.12689081650875295,0.25954320013914345,1.4742501713863339,-0.82371788677205504,0.7604650180496253,1.5837331867758251,1.7986172871489363,-0.039465457796914842,-0.69217104687081421,1.563674407425927,0.2258696560774304,1.6327595912853869,1.2768693592430558,0.0768937435043969,-0.18244049372406815,-0.42177731214329783,-0.91369634311874193,-0.86751673795483297,-0.19577629900011828,-1.7032021971269307,-0.86853639539775751,1.1873176701805299,1.0283140713217513,0.63349049602725505,0.34377487245582578,-0.71851299801495627,1.69218938680973,-0.048196376829556534,0.74582728724195235,-0.43993520395211483,0.097374112722005246,0.34339355323104215,1.7362767765200311,0.12998898910675885,-0.4927797147330939,0.96657608086443814,0.19740509522446742,3.0019609058814689,-1.53125091973018,-0.65306086762789806,-1.832196019343423,-1.5759195271292072,0.71460725765282607,0.61772900518188556,1.2268988958084555,-1.793170456511842,0.060310747901669147,1.6572350545691019,-0.79382021130532032,-0.27469607675271407,1.1020629694865056,0.91027498541553076,-0.56706731875749916,-0.74157094636549103,-0.56971223648151026,0.59074549301676482,0.60569660166390271,2.3625788422648442,-0.948831713805106,0.88567790848803785,-0.047994449126107591,0.53315524905210177,1.1350548563745304,-1.2621696441470664,-1.2849798896372646,0.31280165242461433,1.5178939565132707,-0.8075027174594227,0.44557555005314381,0.89043079810891468,-1.7215443893155689,0.01412645856882884,0.16887955312342418,1.2212963304720987,-0.88082870399619895,0.66019772081995676,1.6795956692263154,0.28476739635566789,-1.5045183240448439,-0.51421145853956229,-0.7002364165169892,-0.51575740645339141,1.2023172189463591,0.037221765429212204,-0.41451448945081237,-1.4693429898704649,0.12156119535667605,0.5097990594594819,0.62222643459615568,-0.41798266290745301,0.35405647777335514,1.3748441894852468,-1.04976609220619,0.29059040090921223,0.030319127795497672,-1.1470793513957234,-0.75176596052373745,-0.33703008708818566,0.098718386770632896,-0.030758614865785221,0.66518191241278557,-1.2178994614627987,-0.892545856652051,-1.4049798739071098,0.70692261354247277,-0.4431365841942862,-1.4665670629561995,-1.1518057536629587,0.19868197775123481,-0.1895768646610165,-1.3639427481560398,-0.5605928141423967,-1.3358840091666628,0.13718489908496673,-0.68684024108132524,0.47467036499100168,0.86530124331460501,-0.59922539863477309,-1.920775471646285,-0.48003987759066752,-1.0840083063876633,-0.7535226100836413,0.67772641111230836,1.238459274438396,1.2113837855029719,-1.1152164325591138,2.0491994204157415,0.22676847069602951,-0.48192993504598425,0.13760044499441815,2.5259503303185342,0.52603057491581751,-0.83891809987514399,0.47327529461441309,0.12499558561282691,-0.81654274371290603,-0.047954665889286624,-0.50851763656022653,0.63879961550546338,-1.4491754971752362,-0.80423923900828564,1.0818059005145231,-0.096853638551543816,0.34491643690015994,0.30530734638083795,-0.38861833048457134,-1.5361591656672482,-0.71412114444983343,-0.31532273056613985,1.5302815986519642,-1.7721515277049833,-0.56170083209501109,-0.43605247338092562,1.9786279758915597,-0.91941325499440885,-0.035971372142565405,0.45072307277948587,-0.25326871119995858,-1.8779105302502177,-0.17218850152071369,-1.1709935309424881,-0.47888509486436165,0.94430281087798251,-1.5859000510487216,1.230296950596482,0.76838489128957033,-0.96809721194885134,0.34816113610999411,-0.17769953758354826,-0.2545604462452814,-0.53007734138941565,-0.80025383175308851,0.78575045998816506,1.0091443174768326,0.24667782444909608,-0.32289621879156744,0.5638971384520074,-0.40002962077247112,-0.77167447734660055,0.075837676978587121,-1.3520489022172659,-0.98670280593671911,-0.81144280734514795,0.31950015491216649,0.67142835657897781,-0.32035824871053536,0.99800149787378156,-2.0640042471980733,-0.049919494403864395,-1.122372904115166,-1.1756713075528511,1.4294165565619816,0.50062664726050499,-0.87418228922034058,-0.46789811062445097,-0.37881712461257888,1.020354822252161,1.077820555711291,0.56000299787082553,0.73881097021162934,2.0947734433956793,0.62334535330642304,0.58500870443680142,0.67207852118779643,-0.31923615692863749,-1.3119570681022183,-0.45986949159544666,0.17830747699036992,1.4269038147691859,-1.1746174487088514,-0.20211157167448779,-1.9564955176008405,0.037850449705991336,0.61109699645751081,0.36530191481618002,-1.5537931898579387,-1.4500097646972614,-0.43872515531363737,-0.61945281583032741,1.7266822102713224,-0.61817197696587867,-0.26640644258299317,0.71936678868939186,1.447500220759695,-0.43602304842557005,0.36387020728923558,1.4957081885572818,-2.2467377636678973,0.25878423995842348,1.0075341102815354,1.2104072836222559,-0.89940366147225181,1.8146661211261255,-1.0417673237405294,1.0966262218280673,-0.92771259776268178,0.88129060071744048,1.8256395900397786,1.2561409030332664,-1.9169537558122236,1.1766058234033312,0.07000728054863932,0.66624606870422076,0.609475570925743,1.0086977522111533,-0.93141214449757015,-2.5318607878086699,-0.91244154994571658,-0.76682161048243269,-0.10906654157514516,-0.19441860877391101,0.047801440343790108,-0.47367685733794362,1.3049873872260029,-1.2038885471786873,0.88060975520143725,-1.3802791807121157,-0.16308952419523817,0.75992705726915022,-2.5062339353910876,0.017024176561730133,0.019091892840763645,0.32155411609010431,-0.39841114004884964,0.75684303553807142,-0.82264491217395719,0.69467782450908677,-1.0809202617706335,0.02767939521557607,0.8325341524084906,1.2817968860111666,-0.70218955235072178,0.94096036978626652,1.0091227862266379,0.97329978573443821,-1.0609256690138358,0.12607702065185325,-0.48388280482401774,0.55033208444062931,-1.5714517147622,0.39805104681381953,0.53623927560988871,-0.57947177030409658,-0.1862204139768904,0.39678448586338849,-1.0146307793579099,0.60183127814211557,-0.64854194150573097,0.60090933758473519,-1.8269863228306531,0.69826180811676664,-0.12105203155565081,-0.79840073955447355,0.068105019203729703,-0.55032546963111595,-0.19115136654895545,-0.77067527047732187,-0.30487412265271602,1.7662350686630519,-0.17340443973969519,0.20515314062574519,-0.4801936026665572,-0.45523069574172859,1.4668729185419624,-1.0842463638019775,0.28024529086424821,-1.1524934172117873,-0.70401656720067951,-0.6417722784311839,-0.20098758772377984,-1.712451133440194,0.032571262357263542,0.97590490280845477,-0.16879682478601007,0.17757255970195684,-0.36697819561289463,-0.98455424007189474,-0.059425829521043749,0.95014037414806651,-2.1418976881038505,1.2350206621274873,1.3244737249917049,0.26824370889464311,-0.20226251399232534,0.33826305741788182,0.58901889303511157,-1.5510783866054221,-0.27913996842478866,0.79523133318406081,-2.6787825385515029,-0.7857665143982302,0.53300211551487597,0.69034548056292144,-1.9977281516525758,1.8183871539670684,0.02068282501230409,-1.3746703042068491,0.99794264847105796,-1.1933389517237218,-1.9424967731763578,-0.47225317045474796,-2.8360749560625984,-1.0978578149074396,1.7348762997869751,0.50443060782769733,-0.97864039760330179,0.57477319207358823,-1.442724076103717,-1.2645319776996247,0.64428530808969386,-0.67075027780386287,0.55405744112435396,0.92658247133632288,-0.11827596385024654,1.8968939937539777,-0.92945958132016626,-2.8719375529399436,-1.2934492432389213,-0.24958397000670041,-0.82220552733508134,-0.40632705786878004,0.17744524979070209,-1.0654478511189145,2.0919421422575812,0.75326433261324732,-0.41160015978293646,-0.54524358551062657,0.11576970178149498,-0.68332015304720628,0.49834068532183806,-1.1535478396527274,-1.3237445028302375,-1.6304102450525748,0.60292017964876587,-1.8193759864684238,1.2618647541502457,1.1960327878547101,0.29700192354991256,-0.11528799214542684,1.0165253999396608,0.56954205127908375,-0.92170621714165268,-0.25729779102552325,-0.28272330546878488,0.28488764967724495,-0.41010152763865326,0.48710173227823494,0.078620258043752542,0.87267244331427196,-1.1656728941469547,0.44157489997655741,-1.2520999084111881,-0.82536525280917961,1.0511021176327482,-0.75001903205339626,0.25833283735120544,0.13911456592055566,0.42596185594419866,-0.31846495808621089,0.023447343095484439,0.9406534112379541,-0.61461149082593824,-0.23456802829306625,0.25741388221420891,0.78862139573958312,1.7454786217772655,1.7475542032532163,-1.8456731076708706,0.18474407645033594,-2.2871959055039057,-1.7774167345543077,0.46521224997265026,0.59423782565936045,-0.060727034064453615,-2.3379643258786027,-1.729959300851043,-0.91611321891239272,1.8818911111866679,-1.7529404046609749,1.0119729563624669,-0.91530197216322484,0.40712901873838758,0.41061211711862405,-0.14158166088601576,1.5013306419550638,1.9949879134515121,0.22820659281217909,-0.31118691956981531,-0.1464091966628514,1.6340337127535074,-1.2149840561845271,1.7724583642747438,0.42704809626599899,-0.17422890742570185,-0.60702574619078098,0.67341882711314371,-1.6710365152385716,0.012239606572797421,-0.55133172750609005,-0.47680182258595627,-0.3427038301050751,2.1329792584001237,-1.7440223008853868,-0.34802225259674768,-0.45705048064012677,-0.48455664020425149,0.1689044321560953,-0.11104240906195341,1.3798035402321218,-0.44981704559147023,-2.3140364462874756,1.7037947954530201,-0.0068555142817913663,0.49490929381358112,0.62885667186870919,-0.39720127615677675,-0.20169929314573676,-0.89668888893523546,-0.78138974730974575,0.88919304485991446,0.92541642403576641,-1.0956588205123974,0.51554281182895145,1.0765960400366139,-0.37047655946602043,0.58517984540448209,-1.2602281940432862,-0.66739788310587822,0.27889909020217257,-1.4995018478151199,0.56148985619757696,-1.4980141607819255,-0.54008968833707849,0.64941605330068175,0.46042007635410342,0.92442231058092905,-1.7407305604680083,1.4298275729001697,1.4369421627121475,-0.035967379822289348,-0.7830042255832611,-0.87538087559590561,0.43077333348281277,1.5905838414547095,0.18386551444776383,-1.3996529549900232,-0.95981691643347067,-1.0157763104264677,1.2994510184077812,-1.0166263972186136,0.026762745643427295,-0.51373326172322009,0.19316892745673395,-0.19014629644542286,-1.0755008287333341,0.64410945682110587,-0.052556120905237029,1.1976633175621694,0.011935750013007467,0.43057151907829755,-0.8702285234483258,0.64366953158053586,0.4239509500436438,-1.2803589899620875,-2.1171178326434603,1.1690676305598626,-0.38606988780647866,-0.86228273294495306,0.20855858526265633,-0.063564299193181725,1.2536285673328331,0.43184914894583742,-0.65629274508725255,-0.26242649765749182,0.14239900073626247,-1.146270343613514,0.17454669522187694,-1.3845302501326113,-0.042038485899070228,-2.123895848192455,-1.1850716729184934,0.0081736876856570839,-1.2128727512617585,-2.4847845328919593,-1.3240433174690958,-0.2494456086259772,-0.39072314612977377,-0.30864864474971759,-0.054704891568356138,-0.22253033875769201,0.26146175341911604,1.0691271541984511,-0.13678320158697121,-0.014508535765264206,0.312017133576168,1.1865706410521224,-1.2242236435233838,1.3314360332210085,-0.75403454342992526,-0.60801104528831595,-1.3468355381924768,1.4669789037084695,0.55363769357711912,-0.25778314301811833,-0.061237286099130844,0.20386545882287935,1.5048310186916256,0.10708857974661055,0.66985858332326631,0.60371447015599644,0.0087573941492335838,-0.46703792179834741,0.27694465896655168,0.98031524339318454,2.2105101741027418,-0.84405186417142319,1.4952180165802149,-2.1400054765521261,-2.1480817097588862,2.6440592788040775,1.0611836928297422,1.3951944652543777,-0.46913458531933638,0.056782111491996426,-0.26501419096859508,-0.05290203603903406,-0.18380494164415748,0.77415207061346025,-0.3566063291902542,-0.59790629102871373,0.78007294114080428,-0.52308267562838695,0.34010861414525184,-0.38371454696825685,-0.5501110960247686,-0.28647171244902092,0.42312710858578173,0.32075675322772529,1.1402000162602819,0.14739976750555847,2.1846092257403535,1.1121700303545421,-0.21396503797895955,1.284535071162995,-2.1112743903285107,-0.36637757790514219,0.083591918773271628,-1.0705080509255478,-1.8187243492731233,-1.5202454667332923,-0.54908472934482011,-0.024265711296142998,0.75358972816734371,3.0709399488016738,1.9063940025268278,0.14928177554905322,-0.13829623313018483,0.98346257974335194,-0.37206418098042815,-1.9299745129569714,-0.22782665110193084,-1.5244572692616043,-1.5410240974088734,0.53574807693732773,-0.36037386057467413,0.86496671253003521,-1.2880237182050787,-1.1760349416871747,1.0491101949033661,0.82021395366708383,0.53906683082957163,-0.15465621974219529,1.430606446249419,-0.45181505880866035,0.12346532874287562,-1.1577443234249534,0.37838537960538948,0.17157728137067385,-0.052157108558298713,-0.56515061234518238,0.71126942115772285,1.2838365015814426,-0.23394698238197698,1.0386163340563987,-2.3615356038898363,-1.2609321500843396,0.1795776388812346,0.071087619738655489,-0.92961097906913992,0.60308851756651571,-0.26344128896875951,0.99726252333268361,1.5792751676050696,0.034625160232669788,-0.47190837067922331,-0.82952665601988529,0.20941200519498665,1.2910023807451974,1.2256092472448723,0.9851553123296215,0.056405655572619715,0.093067921684861443,0.28774836473208754,-0.26758747448179526,0.23008306126754793,-0.79232375761823892,0.87861052190976985,-0.66887438633679563,1.361395613432832,0.79021409687369504,-1.7002052281397406,-0.10945433478164014,0.15630627123255464,0.78357662993927124,-1.2872980415815685,-0.084960783181712449,0.80666349117896319,1.1704860583001058,-0.2607594613281855,-0.11181933400278486,-1.253988614359586,1.198370668144437,1.0165228948481915,2.0311665443164433,1.1423303784418801,0.77802104096620861,-0.53742093052065487,-0.15195832154291358,0.72148420922946388,0.2924426306321074,-1.1704208679966932,0.54018613463248111,-0.37633343573827854,-1.228428535326286,-0.83394655848686938,0.47489344295376468,-1.3759027599856339,-0.54187673026089234,-0.1243364551773297,0.46032704420918624,0.67556702455820383,-0.35684507846939478,-1.6695967714405042,1.5240504184384229,-1.6200870514345072,-0.30501631793865686,1.7272353050949654,0.27446090136267509,-0.89209721120404462,0.84326291069321346,0.50738325733675649,0.028717412123920379,0.66896230711406113,-1.0304668058774937,-0.82339971922070809,0.083714768660571856,0.60833295055961412,-0.066765845968018239,-1.9078323299534827,-0.38325238560062891,-0.056223491589206954,-1.4914817567442309,1.6910690251900593,-0.70067062469411467,-1.0708854084117361,0.50323778462646573,-0.89859746637026383,0.88554959557788682,-2.1859850808976353,-0.27689314075345611,0.60450769074521293,-0.85163989990331412,0.62335573857815896,0.022935159910759697,-0.66846585488759369,-0.22811954189493822,-0.51357058587988358,-0.17980394871748701,-0.27370808313503731,-0.27953652837632187,0.404180585851737,1.1254323167406495,-0.79122521850147931,-0.93551379257831613,0.45360549550646845,0.31337163072476204,-0.35442632577987571,-0.76089070290365624,-0.60330301835468747,-0.07655922290348488,0.35990622726543209,-0.37543413437390455,-0.39628187669031839,-0.22888864045657839,-1.2923918467783428,-0.56035101218232686,-0.42686382074143614,-0.95638039435692745,-1.21679843814703,-1.3028875707972754,1.622985205255477,2.0148337210249281,-0.38631366231986647,-0.032542817460624859,0.19296206364789981,-0.1739823386472234,-0.15785427871668278,-0.27151872814929556,-0.016455368661353591,-2.0225862434021664,-0.83091499834973082,1.7769800611819075,-0.62166616021552257,1.3616140458422827,0.14820258710481499,0.30758928121910212,1.029245195603208,1.6631472346104721,-0.87079111392382047,-0.19244312199898164,-0.79550133724508609,0.78608396866490293,1.382468190722804,1.8404176659208815,0.41246348072487521,0.23799519075387635,-1.3541490172903745,0.55019017375017421,0.36061855128181319,1.7460884078474799,1.4122525077855745,0.32037650519174565,1.2209859900609394,1.0697734864462087,-0.92072921959550691,-2.3874527953185085,0.065700228064356103,-0.21737016399940146,-0.18223511052932537,1.0709044096362879,-0.14410524610385944,0.41797634758309204,-1.881648101309497,1.3144744394916439,0.99642101080189605,0.63631134286927438,0.12783731499243425,0.11630137040486339,0.609756882204746,0.70804359849073062,1.6951155582681674,0.045173798861929584,0.79300914907565723,1.7819546273211668,-1.0142704317607454,0.0080136567764250658,0.090532683249006374,1.482962313892735,-0.074772685594357596,-0.54211617067626983,-0.74107939259271338,-0.65030215794363688,-1.0193983623153884,-0.13727842394327663,-1.239960069466246,0.51965214232923795,0.065731741176673603,-0.2166667837153784,-0.51861167645440287,0.59530771971286378,0.39153496996317766,2.6095755603670239,-0.20720806326206187,-0.96097350275815674,0.0021142451337261671,-0.92790901696070449,-1.8402283797661991,-0.32961218187356894,-0.68160483912012926,0.079719981936818271,-0.056963124702503608,0.64677577673618913,-1.0533692352393536,0.77520321017003802,0.6019453968602686,0.52149265175567217,0.78948244860205918,0.12475752654153788,1.0917094595504866,-1.7982113168834148,0.10030076621661667,0.76773884044665741,0.79833240480736745,1.0811283892294552,0.6710369037116245,-1.2728366758936225,-0.11730697539489379,-1.944756673761826,0.13838900989193748,0.5570391516909543,0.0068299201211961371,1.2319528089105407,0.88497454728790426,-0.68501212740988815,1.2319200813809119,-0.18481414111726355,0.22537140113694604,-0.96887240178290102,-1.9154606468790412,0.71390174470914514,-1.3993798336385632,1.6175620478579023,-0.019835213280924118,-0.3502348392796979,-0.046722861721709273,-0.61364539138307739,-1.0093801565497773,0.77115828666831665,0.32572928531417472,0.31436367614128924,0.67118324802799589,0.54930730889660118,0.71373074216758425,0.35183702628629815,0.25348831595702909,-0.66251075582760832,-1.1275245986638009,-1.6389732142004121,0.69881361556135158,0.88054017088715997,-0.059744379756206348,1.1411341895967628,0.52348071932755824,-1.8952355517466422,0.37958421758287092,-1.277956322670404,-0.33683632696275856,-0.85620254294055176,0.004908893365474106,-1.343169330122834,-1.1847409164988358,-1.8256254486551837,-0.12680521609088649,-0.39987424228873969,-2.0728138537479306,1.3707257430253692,-1.1036312238660417,-0.6004133785284268,1.3650420615320937,0.39297198660141214,1.8684434422706691,-0.76671874734157419,-0.8219810346184494,-0.76463758954752015,-1.3484511108314974,-0.69956216937926274,0.066736167425719056,1.6439105095105961,-0.62880169773825023,1.6002670881887278,-0.2555704366296252,-0.39820328696626872,0.25503152833326215,-0.86025486569272269,-1.304895846711313,1.1162223675789193,-0.3913698796566446,-0.69974180884025139,-0.35509464137923857,0.25254110936161556,0.24447855660780216,-1.0758503994996211,0.53883798779252978,-0.28317722952877422,0.093755961151466019,1.0280479684936032,-0.17395343553507223,-0.019434352261571242,0.52554932821355127,-0.41394306719469581,0.024339876966251561,-0.61557030073096075,-0.92432064598888486,-0.20799272625076287,0.58707701702023118,-0.81017166179567968,-1.1179122718561871,1.0924301945921513,-0.36287957929636361,1.1487161512785236,-0.67690584733782344,-0.94069492055542381,-0.63039985902149343,-0.5236239227486591,-0.063155597690551554,0.78752128095476537,-0.68470021117704383,0.24582285497503567,-1.1349983740844745,-1.4415704542846575,0.19164795021548628,-0.48956113112754429,0.16770251591406252,-0.23531853308297784,-0.70320663736695055,-1.2543324895753543,-0.27040600566538248,0.12326582061141728,-0.44832786497223631,-0.1765451647977008,-0.58438189080129066,0.8667300156051968,0.35848833860429558,-2.6027075073851327,-0.47101693153053503,-0.65382596455608977,2.3283864050894243,-0.093203529050544201,-1.0729784401875428,-1.1732141528508593,1.1470057663569218,-0.5513989624049076,0.41981064027189319,-0.18791697240437566,0.16990137943902897,0.73334432902429503,0.25556850579086543,-0.61141619295679028,1.580488621920179,-0.53268941125487435,0.27872852502432732,-1.3139752486351253,-0.56926535123364874,-0.61591104214137449,0.21209484793595079,0.41282661823450301,2.5064824405599202,-0.4983327266657937,0.49975812755215837,0.47005383235377673,-0.59048810361184101,0.043562877311564038,2.2832705060613527,0.90333803293241732,0.29621281148495771,0.33444402037820592,2.4771016334849314,1.1460905176785481,0.47234701770059306,-0.13221958699510303,0.91900846542020487,-0.12511967551843992,0.11762025778612842,0.86277978302656233,0.0064306703790061488,0.60120964649643938,1.0458578619254264,0.34247929582935749,0.12348229939616526,0.94097632729345249,1.3288314218056112,-1.4216036744922356,0.78259120784095715,-2.1676121451484764,0.21714165109327213,0.39940842963377438,1.8211855950237694,-0.56422084713321985,-0.65796446514408857,-0.74081794225886344,0.67464234034157688,-0.053111579153037949,1.3414891857904512,-0.080142352181726897,0.93751874415074288,-0.89536422247472125,-0.55120743466492927,-0.57827358259170858,-0.59629203805383368,0.090982130916431633,-1.0995322742754141,2.1216438162839428,0.07051899511289221,-0.57637580648529307,0.2304090007105605,0.70563487542256742,-0.48736146869619312,-0.9582813627680502,0.043565391273321326,1.0539711613642639,1.3676758676913487,1.3244299368671186,-0.80955648912833533,-0.35511249721762822,-1.611754824741136,-0.18029341731820012,-0.17819937527603744,0.34912731464115943,-1.0915029797586628,0.20350640312510229,1.5388071283560047,0.66302720797793546,-0.76211398912922712,0.13802224800309262,1.036233958218727,-0.14993590108953594,-1.2741742674656209,-0.72814089625490164,-0.83897701683171788,-2.058186447982095,-1.2229251301689821,0.0010631980853466401,-0.34175445533683613,-1.8766296074453708,-0.081649054961446962,-0.08872607029382279,-1.144634562573704,-0.57938007855805085,-0.027061122467563533,1.0701425064638208,-0.26348637547887571,0.49497380925076767,1.5305046135000211,0.52305478458646826,1.6246434770991851,0.10525593071425676,-0.13740041824308855,0.71308684454819204,0.14064921573811728,1.066962585697335,0.26178614391794464,-0.44262206991448422,-1.0055426801849807,-0.26881456404440662,0.12871316735787849,-0.92203255456274991,0.70390095430146582,-0.7312660198077624,0.2014229504092635,-1.2383953978537532,-1.2245694154980564,-2.1550080155255631,-0.25405710163035494,0.18133791902560636,-0.8252679316605761,-1.4426610691495365,0.97233478525966066,-0.00024488942864522899,0.18367138291263096,0.10012925466808814,-1.2121086514512305,0.36841649446384733,-0.67184382279136978,1.7103859947288731,1.7656592226273542,3.155578946275353,-0.74095631842800258,2.3984871529331393,1.3150219450556029,-0.31120891543297563,0.11034756676654241,-1.6585386807708935,2.2921302531384127,0.11394322318561466,1.0220260526284346,-0.3883658973936937,-0.84914922546994454,-0.29704493452341885,-0.41210265324313705,0.32446267259131656,1.1748136557896438,-0.58479619950934458,0.20654496908457609,-0.093962701989837305,-1.0086923187958643,0.041606702191453099,0.94793675572702896,0.50356568260837398,2.6843276724689353,-0.015597472711073722,0.20232041273027065,0.66289174920288341,0.37313528285734859,-0.56889287884296302,-1.1038868217084363,0.078016688951958388,-2.2943339489633767,0.17413969434423701,-0.28287236740126293,2.5561969353326273,0.64096876029417127,0.81578994417490391,-0.20051505396954389,-1.1539958065077607,1.2106861820251669,-1.790228393493579,-0.93184934960001597,-0.59465418517962843,-0.63208444820778686,0.64498319369938895,2.021723421918284,0.086548697673085373,-0.35403406625501732,-1.406895013887872,-0.090413736100214859,1.1675835283679299,-0.78879675799655657,-1.5510510529440331,0.93313173598186194,-1.1217227226756845,0.84753479375931839,-0.44444081004926256,0.048588090449274333,-0.13075939378016216,-0.74989490910453438,0.30522215921160101,2.184035527933208,1.5609084007627096,1.2457541985712293,1.0307785227234287,0.66818107706687879,-1.4549732463866392,-1.3319766910402455,-0.16657578551475896,1.4786343912119833,0.69910390366787944,1.5453105879599065,0.78428226128525169,1.5201498795395019,-1.0118110668214237,0.10637850707833672,-2.5718862337495145,-0.68143290242589871,-1.1457427297680791,0.52622186034229856,-0.075668777766343967,-0.0070140280459555556,0.043225151386522859,1.4394649295337112,-0.36044625848765216,-0.23647144598920797,-0.3709535482408251,0.83644071056191582,1.2093453500824458,-0.084223189918335134,-0.24078614536608434,-1.5361604188649336,-1.3994648445724602,0.20883841997537239,-0.41971501741881895,-1.1374675349833276,-0.73386134345698573,1.6176679394433611,-0.83391516531904419,-0.58215426938705994,-0.13221911580197887,0.43381993727618096,0.19265136479308015,-0.37177283783284981,0.4562907374785925,-0.64492737019148383,1.4141114732183628,-1.4013117435749585,1.0881128220215552,-0.051532392316669541,0.20782109114082614,1.5426388443984536,0.23564465024762563,-1.4798912981388932,-0.046489798145988054,-2.1518974214210638,-1.5011246509321385,-1.5994500907044327,0.25763373020494929,0.56701752341708334,0.19487150818386223,1.0531424322722365,-0.90415190479545549,0.52856705875108312,-0.2428306070566045,-1.5861631803840419,0.020150181651910962,1.4420298921869374,-1.1191304348152713,-0.32077341643173402,-0.60209766440475443,-1.6384442182734618,-0.11967495629818768,-0.26443796334163516,1.3286997493039814,-2.2888854928733351,-0.47524369686049578,1.1677998285219124,1.5257815816721338,1.4296219083884925,0.76283515307364025,-0.29663212400893268,1.0763209158345828,1.2431302213740953,0.060239888019339209,-0.29103990751343817,-0.84395348834319572,0.61738932030607996,1.2577343287780116,-1.1621089164717198,-1.1509017072806575,-1.8015940388356835,0.42172325502832103,-0.29412171175814172,-1.204180729581892,0.96330807736432689,0.17469753264776219,0.0096826065573552694,-0.65365436488157191,-0.6321337802073711,0.91264406227100736,2.3084474491407092,1.377734692175502,-1.1567041087876615,-1.5546789321415693,0.22102912181258572,-0.54945796492933763,0.46134296203901903,-0.60976558160729144,0.83534567869880649,-1.1385878932770119,-1.4859161645662984,-0.37366326801660654,-0.20117910722063972,-1.8218831304731435,-1.1403036156342929,-0.58203045126562825,1.6201976517052203,-0.13128790990226677,-0.68861601549289053,-0.098191524106404665,-0.42092327892241349,1.2499976561660535,0.041558692502877762,-0.46769269587740003,-0.92147569524535344,1.4418765702051253,0.29913217252676561,1.109438840587426,2.4340363005807242,-0.83670095667540756,0.80769011947162916,-1.4644335383545752,-1.0177065284633671,0.08766548018552138,0.021961502799926313,0.29574919471308275,1.1378573375854608,0.61530946552560573,2.5288057894167095,-0.29653085707083021,0.82856207124660741,-2.3624704361685125,0.056455044648107557,-2.6720075261835627,-0.56216530415941113,-0.67247203124542687,-0.066551625077046705,-0.55869650251885838,1.6744020044302126,-0.72201808539434298,0.037377541596129465,0.99199084348073563,1.8326264953388882,-0.30433592338706345,0.4798821720291076,0.85678344336585177,0.16052084969323807,-0.2456000684517585,3.4585204596605297,1.1604254157743414,0.11629058238486979,0.42866706669701565,-0.92975738729515311,1.193573001276407,0.1711037943679265,0.19413758019529953,-0.58320071745246094,-1.4613208341292261,0.052272860518501253,0.50591552986323018,0.0065731059480805317,-0.70255137429859549,-0.1950071164274941,0.8983436770834371,-1.4256968795715961,-0.18336204464909867,0.41928083010885187,-0.44948013202308812,-1.6723570531953924,0.61751910893991735,-0.79013598924504325,2.5349260392967858,0.52402347208159183,-1.7496977342750095,-0.45407958173149437,-1.7770017090984116,0.29554092005511229,1.0931484028550662,-1.2104074296837899,0.40293374804452897,0.39720810207306873,-0.90928933923753064,-0.31173446853550646,0.016421897509401186,-0.34061957797562448,0.48428870596939599,0.77162247154985497,-0.30039601455053411,-0.98600954536664542,0.76979192316623513,-2.4072413107640789,0.47945944361966203,-0.12739658698895839,-0.083159742830766423,-0.1314522152767805,-0.65918716842818537,-2.4663057366571346,0.22230284472934372,-0.62526813017172478,-0.16255011884225617,0.5752425160782384,-1.2024824588551997,1.4955941284681655,-0.031308707707577273,-1.0715511998359166,1.2050096993191666,-0.49922700920012586,-1.5939014248349379,-0.077607203936409769,-0.46345634780059952,0.1866846540803577,-0.60987443258623752,0.09793995399425115,-1.6058856957013439,-0.82466158486611019,0.44459458620800518,-2.0695011181363623,0.62619392475680413,-1.9101568157698443,-1.3111711629527536,-0.61492315351708537,-0.26387633340207284,-0.29801952509135243,0.65999569733169339,1.6551566568331442,-1.0460324434664829,1.0926748208726578,0.2918042952185953,-0.074140579836159917,-1.3276778072082862,-0.025573233787794216,-0.55763674009106368,1.1805659263053507,-0.48358039407297632,1.0290464906879599,-0.49162556836708776,-0.59994932070346463,0.86482561234819888,-0.14222209267088959,0.8726135906902629,0.20957736386169937,0.45191348157994782,0.34491233809425437,0.14165444911759881,0.16090695099335026,0.39273508146117686,-0.4097395961350907,-0.264705845990301,0.65635488273793252,-1.2867133747649946,0.61638086528205238,-0.16978042271615384,0.29536337309617794,-0.87120758874149129,-1.0832327586007029,0.8316693727151635,-1.0858840602170605,-0.10287688526569308,0.79099670010114687,-0.61285957427214199,1.5608008627021726,0.21096360091098432,-0.26768208558471296,1.5499910479815839,0.46429646300434207,-1.2155877677597826,0.26221984591053987,0.3114842393677093,0.85063237597767749,-0.45565513801527097,0.94568954657609483,-1.2692052642217062,-0.51926139016071848,-0.30620283054030523,0.46691050751834706,-0.36176475406254754,-1.0607880447565632,-0.40051085234927308,-0.57631776882896824,-0.90269578585772825,-0.21915834267319298,-0.66029648304836075,0.80398223285391912,0.88570225000652369,-1.4100961653757236,-0.044022078156122774,0.066589936052128165,-0.23208574145784622,0.74598890016562824,0.95853431973205105,-0.24663278146734147,0.36427025756113329,-0.78006157705848089,-2.3231916127750498,-0.46665230915417422,0.16493678935249945,0.56964084936051851,-0.65174793272066767,2.1560700379847115,0.50942238865506917,0.14840309351447761,0.16507147140646566,-0.83453793805794751,0.064915094061783099,0.74935593861314953,0.93275270211337746,0.20680328058015524,0.82110546679307783,-0.41586341914773189,0.30404476359510113,1.3520494906566376,0.76720449645254174,0.058831040139491017,1.2664737613643564,0.22994453227901537,0.50842385026895098,-1.6196328548384631,-0.095070447398136193,-0.30187904711291391,-1.9959281055514655,-0.54379362252758623,0.28427629754438055,1.1738015853841834,-0.92114141409981198,-2.2445713370154605,0.00092072464663479003,0.64933916606253383,-1.3236791827733612,0.069056400586673894,-0.39859940393316562,-0.060007777800622691,0.052467011592400907,-0.18403284215473298,-0.37731638813285046,0.056750061678806814,-0.83164406093591647,0.87715644843044127,1.2710129633191307,0.19123636405927499,0.58054574766903078,-0.70457266778659156,0.21311263082093865,0.17381231443633613,-0.17044519207580708,0.02504080090077495,-0.61401103971288085,-0.003696644315498428,1.4340021878791602,-0.48295364792743845,-1.282058921932318,-1.5422452009837853,0.14996138669623194,-0.57982107174063857,-0.91636584319054459,0.41613564973526895,0.53354603624879382,-0.44989866293249864,-1.0423796428992893,0.07290552982300888,-0.45279956945609867,-0.7894889812560929,1.5827221109653253,0.25994198971790139,-1.0782397454756967,-0.8553925537020568,-0.022841867486880014,0.41010939700813404,1.5513250234081457,0.27433702281852462,-1.0150036899044228,0.54154911008258366,2.0351856583941492,-0.18620629242004683,-0.72717606500336163,0.5824315559911889,2.0632759100767406,-1.6628516480786679,-0.36007072057488787,-0.31994277892907563,-1.9513892843011202,1.0997010364475128,-0.85666737855335173,0.66754582304014032,-0.011419717328877029,1.8957810512332693,-0.50931962621914695,2.171011404300168,1.2644871865946095,0.45297963206107439,-1.6626156624623507,0.18460595476678124,-0.81879658758879037,-1.0045645733952484,-0.7783655019247806,2.0177733450363773,1.1019335034193012,0.9641228351989134,-0.12961493838755916,-1.1470518613769469,0.96203020608866929,0.40705572055731221,0.32222240034780636,-0.35818279856327673,0.37527706420853046,0.91049668521806082,1.511408842860847,-0.34256131878664936,-0.15519911402767902,0.04039584820962578,0.11410301609131691,0.50861475834696113,-0.7788523014333929,0.2176487101298486,0.093783065305642108,-0.71881792756795782,1.7103459346050303,0.40823686691667055,-1.4617492196557036,1.0365625027347958,0.81212997837313528,2.6052857179713027,-0.16422383829596682,-0.37867312728336672,-0.1822886589796803,0.50383923819892062,0.4339041337088167,0.4738694349638638,0.015074070116961373,-1.6311592358286338,0.055429300094068816,0.5773064137754339,-1.103897104732293,1.1753282826352602,-0.20449171096591448,-0.041633644373306189,-0.93832025791167906,-0.83649836036751257,-0.52613412167838369,-0.5611691981443786,1.4172753035665269,-0.099683127487529721,1.0454132694906195,0.51140187114261226,-1.2834164253566818,0.49836084490312943,-0.27068085715427626,-0.074213399613898404,2.9441099990620039,-0.1828178266577466,0.50522742448823987,0.056060817495895802,0.75834344947971277,-0.01404689148751795,-1.266240860549291,0.70988597531049713,-0.27472173342806616,0.43961343524308377,0.72354257176281345,2.0985208975419596,0.54691113868440899,-0.044676776333122045,-0.87324460715078589,0.72825000819952213,0.10146679414436728,0.25174866685612052,-0.76562941215592517,-0.86756543439123379,-1.9206062265549024,-0.019106744119224167,-0.4937564058755976,-1.2029518060555811,-0.072560162591582586,0.86675326368491434,-0.099008605425713825,0.91449354048931342,1.1190886615423796,0.30301634240261166,-0.1498326724186822,0.22127012589434805,0.73837757925564629,-0.48328610296225727,1.3883301029740018,-0.40012106868278641,0.98683213716524776,-1.8968685751687542,0.17224481775609291,0.29257194223479444,-0.376114007384176,-1.7793227072977389,2.5780654773329132,0.66071583217774299,1.9191368605153496,0.13622095740211462,-1.2944768128349937,-0.044429195592168111,-1.4167593896047792,1.3561392979607618,0.63121821304339454,-1.0173597293052572,0.67956792808876543,-1.1997487303190124,1.343325433908267,-1.2832742006710962,2.0081899420412532,-0.35145403662028774,-0.86532998614943724,2.9572507196530147,0.84017628147107792,0.049790026752261407,0.83597145175501975,-0.28071202680074331,-0.17920954710350814,1.0186683086422723,-0.44971795035528839,-0.89618158951634108,-1.7928547265579722,-0.84725279352751559,-0.19983926577666347,-1.6759232536887803,0.33079404168888976,-1.0886481619219242,0.50357746874604448,1.0732300654774389,-0.74054027504984898,0.37555774788496438,0.69842470907807797,-0.15743990529182883,-0.77907034715436174,0.69608029111107639,1.3813839272677011,-0.35223816048676854,-0.59828968673555449,-1.4467511641494377,-0.20753690558501045,-0.55440835060714466,-0.68237555117449555,0.40819083852812599,-0.29844262196122978,1.3913276902387459,1.2715682066807865,-1.1635018654622806,0.45795636221083719,0.032376122798393261,-2.0540779061387555,1.0489236115429472,-1.3811088546734152,-0.96786180626083307,-2.464780672553204,-0.12453110076061349,-0.46352926620205104,0.10556720527533486,-0.20986194447626713,-1.4604102152167064,-0.86207710010741301,0.59081848302045747,-0.970300781716667,-0.88802450779894782,-0.25208880724391791,0.86087510208050533,-0.66078013511456724,-1.7477255685102113,0.19302650764750356,1.0681138133017025,-1.2070117931418596,1.7433464180747336,0.56973907024954851,0.36580689471341971,1.6513594327088073,0.4509885155889175,1.9116013578575337,-0.70892460381358713,2.3378420453957407,0.45797169540801674,-1.0395092905776762,0.29277778253409004,0.97902456313490127,-0.5166628750945601,1.0946360111137829,-0.40674102212139496,0.68845992363141906,-0.6024715566439377,0.39090506554001181,-0.19699127885952686,0.99783481130277019,-0.22963364554596741,-1.0491563639240673,-1.0610727836447964,-0.44484027677172122,-0.87326189741627758,0.39169915043020548,-0.2724225143247625,-0.078869937182165187,-1.2330465635775425,-0.59160404446731085,-0.055713377310320417,-0.020376005888911176,-0.55565028870805622,0.33820030517808369,-0.99610226132565516,-0.6601150088580009,0.65615915355693399,-0.67425347555907411,-0.29344886130947551,0.023587172753106001,0.20669735423111721,1.2380517269648763,-0.083657419116634782,0.67747969433442945,2.3657261515576873,1.3675221228209544,0.6722648314374019,-0.47733220646296792,-2.3201254642606659,-0.54729682645301247,-0.1370597202136265,-0.33141973274913777,1.3370140642584565,0.22235462662421215,-2.1718356876602969,0.63630597188120408,-1.5027810423944092,-0.64786784788901142,0.086790567279015199,0.69289862581089157,1.1496405982318476,0.64327583411075884,-2.084912083108355,0.87668694311574724,1.3677110543573461,-0.96541033358911787,0.039109838820739574,1.30705877253309,-1.8963455309089396,-0.6940167257587615,0.055131801375881716,-0.34212387824730706,0.46321499080755185,0.83842525991036998,-0.31806405878164529,-1.1181835427910933,1.9291727065382478,-1.0571423814368233,-0.074765413039086723,-0.73598299330433159,1.5329593551347493,1.0391429728799597,0.4516120311780018,-0.89518071678869282,0.18355382180470486,-0.42827022504121398,0.37580173394127903,2.0358553349515285,1.4722116641805885,-1.5012664014800756,0.27554822718322541,-0.1955541416691893,-0.94608141280137537,-0.31437260067903988,0.44735088858291971,-0.077259470948977865,0.0068164002597635156,0.87476804714767009,1.1552054748948739,-1.612897266026035,-0.14546946691575136,-2.1029892061653568,-0.29109800584746831,-0.88788131965745665,0.43796819467358628,-0.24488655507074206,0.49216789279882728,-0.89029423722707246,-2.5082932821872412,-0.1607684230328148,-0.22550093869566934,-0.46108437744084302,-1.5467083735022864,-0.33165938051804117,0.75440126897283588,0.083499635649364606,-0.50156086885494611,-0.12157673858410536,0.17483497381469879,-0.92105520742352875,-2.2622135237450336,-0.82304399994820265,0.96028461595307424,0.85396148531292548,-0.73335469810084608,0.96684674691069694,-0.60134505281758432,-1.000914237136423,-1.3111751903053668,1.4584332001052969,1.8677368661730702,-0.46688708309310656,-0.15272515026929687,-0.14597237514590727,-1.4245983870271042,-1.3883534874164107,-0.30219260987751595,0.43362875775387855,1.122042350049451,-0.90803634652304832,-0.24695550183915271,2.6301000182831853,-0.6129103518432949,-0.28058492889346348,-2.5457461710573672,1.4061038478504593,0.093749628304118302,-0.8799209792560494,-1.4375429499402355,0.62860523725316397,-2.2219177067094797,0.062349521879227883,0.12149535993027198,-0.39299418373951356,-1.2250314700501097,0.7744276855980039,-0.85648506443081429,0.028735431448729684,0.30600640159747133,1.2677280728929847,1.185579158925758,0.6055861228034336,-0.69881789083865031,0.78372912249863447,0.42438168603603943,-2.0532050328189402,0.34803298285171569,1.3151086925574664,0.99908743586761273,1.1097175520090761,0.56154458499243765,-1.0844946941314346,0.69970041115994031,-0.80720831952097361,-0.59516368866521896,-1.8161692168811803,1.2926056630753922,0.48722109279999243,-0.1602676062598424,0.85470501742077321,-1.4118375881663519,-0.6101783363784008,-0.70494099419202783,-1.2539736269948925,0.24990665828768646,0.079573754101533722,-0.34388637291304541,0.85158811021628689,-0.25572538134344469,0.97095868963804421,-0.30444942369018851,0.85843843204107528,0.67378370595210868,-0.71906488482333175,0.025966125687965937,-0.31312372240423331,-2.000774478928526,-0.40512564111828669,1.6446166884197777,-0.54781838187492027,-0.35524051014821767,-0.4754395252654674,-0.37821186042554394,-1.0179271133143417,-0.3178887648586402,1.7434136575385635,-0.43140932763244566,-0.37117167530395356,-0.14981439391675222,-0.23097929941719131,0.84855984282959462,0.46376894343193437,0.47176333521213393,1.0060572350450614,0.030127184459651853,0.58876967282234849,-1.1134040227177011,0.63313875967421662,-0.8082267153650764,-0.68401258830534217,-0.19467093917611733,-0.67218924363548704,-0.066658626351588257,1.5782445929947491,-1.0210407363044081,0.42020839538281035,-0.069692449970729028,-0.29662132074982916,-1.448286825371754,0.19980910025946316,1.0656704811978053,0.36395432438771708,0.18162185447107695,0.63692805184543877,1.263128269106685,0.771617480789906,1.4115197570239468,1.045158893847979,2.348389396088252,1.0643137289958784,0.66214547738488649,-1.2791895426091062,-1.251327937904938,1.1333307165602904,-0.54236007075412929,-0.97842090142872506,0.32087783908441098,-0.50250369554614671,-0.71708158967526869,0.28235297614774707,-1.5471853532549811,1.9685368258413984,0.39992602557343127,-0.6523420522201302,-0.24062635487292444,1.0788153733950081,0.76979231021556338,-0.15596135171612163,-0.046435010525003539,-0.87023263115034111,-0.24595391139274345,0.13619006305227116,1.21939487145087,-1.8689810025468743,-1.2556859154005888,1.4969311472048674,-0.24637490311773588,-0.25367451337930064,-1.3647820423619899,0.33130627540483665,-2.0469213452036534,0.60026320546843603,-0.15656913070976794,0.16025093778658966,0.27772435008456403,1.2972180631036156,-0.91055490032912445,-1.1969894662135852,-0.31878241111155947,0.83413633478584848,1.6899970882919455,-0.68732847765389826,-0.2426327689624915,0.37439980869830147,1.0707476208831792,0.34565408027786315,-0.79253039923824664,0.75520600143952155,-0.1956600630112432,0.6033221722723271,0.9475304319508302,-0.6391455784694452,-0.58713454978229407,-0.25672039800332863,0.3704237447703369,1.7442851834167785,-0.43464200648675688,0.64326199024074915,0.02358394786591838,1.0968590274030683,0.21536137587121348,0.4387536998807321,-0.14345715944419174,-1.3365971984023812,-1.4015553091161663,0.28111939501730598,-0.098218804498116444,0.30467836663257492,-0.91621273919815771,1.8124007834576497,-1.3617178941289463,0.96438176973702805,-0.21507034568763514,-0.51384375077252231,0.28536282741326452,1.327620154081542,-0.073695189277694403,0.31799301933154994,-0.95404279040980899,-1.1244825065981285,-0.87398151670067137,-1.018524450275867,-0.97288309036598819,-0.14336747455987262,0.91110440277835658,1.1665408102142114,0.93207682764083377,-0.81235984116796445,1.6624975420876653,1.1420287784802632,-1.9052247260472368,-0.76697107272204168,-1.861485569828691,0.28394197347788752,-0.99518793491439439,-0.05799326973956076,0.063241923759078542,-0.48564691617895805,0.75410334288879344,0.30458685026086962,-0.48900243349433303,-0.44939075808374929,1.3399116705134286,0.57098537123934712,-0.2731528384090286,1.1712250721497086,-0.64619019238843045,-0.11576091268194004,-0.90665080491432337,0.30014237267773447,-1.0921686350213375,-1.3974616220641096,0.5227682569256169,2.4736728835994546,-0.31904826621744947,1.3435299253204802,0.20341871344034704,-0.66156560668183784,-0.66378994875534125,-1.9812155643874032,-0.27001986905563996,0.45814599705842796,-0.31705596451443402,-1.5696002317528417,0.29078826337639102,0.5123301947539799,0.55371905346222383,-0.92039906081579426,-1.9763355327371792,0.39268763725738665,0.032481821914310267,0.91045814341512454,0.73721037260374511,-1.5346809840155058,1.1217094655888746,-1.7618977894828329,1.6924429387146527,-2.2633734116589181,0.57900822951930075,0.99740757794768109,0.37030223173994731,1.4575954738208372,0.35320685905981775,0.80039685163803687,0.59769994193015397,-0.90500398266364368,-0.032481848797701982,-1.0364107124657178,0.80636135231994188,0.27845321400897199,-0.54121249859081977,-1.4721810375607334,-0.87910505955731189,-1.607464793240917,1.5083682662719011,-1.0610144345698482,1.0358840017748929,0.28835743279968601,0.29137406119156889,0.38318567412154281,0.59769191160696111,-0.59830408016593239,-0.17209351172431989,0.82724082791344788,-0.090119458218104423,0.3098044017236774,-1.0675764618117949,-0.25402521457673538,0.20272078976271896,-1.1384205830972152,-1.8702730237578336,-0.052234448031224283,0.61606321396302,0.47838192860350465,-1.9621646620478437,0.20491414289228554,0.76416876942117229,0.91101141053159129,-0.80652074155583753,-0.53056085058788227,-0.4716141381497071,-0.69296510884918372,1.0146492227706529,1.4784567210145039,0.99323694501632975,-1.3680090302817882,1.2098984655923744,-0.67323748739101785,-0.71416236518697596,-0.25246327073501168,-1.3571625682484134,0.18181567886439456,-1.1511907310565881,0.075804284362963825,-0.31760729445960173,0.59039624445426486,-0.8900428638767437,-0.80689731477439575,-0.90186283788118926,-0.099452204460619434,-0.37038449789390865,0.71837894626470278,-1.0745493611372519,-0.55010054150781762,0.23268153949239306,0.87565197159382002,-1.4721542269273928,-1.6227493827884341,-0.10514285075197433,0.40295149591736473,0.86786345464467796,-1.5183833107390887,-1.9026563786456825,1.1492418791069576,0.54399924542792888,1.6429137716140054,0.66178411144669991,0.13096497838797527,-1.5957351105298549,-1.4397915327120672,-0.81716119869183346,0.049164497873404489,-0.46206293695392375,-0.7568208904713144,-0.94840092678881183,0.34050463334684561,0.35841426418053146,0.78052798999082829,1.6493495884767484,-0.5503133904172981,1.9910084718643324,-1.0598323343906824,0.55642728120592622,0.69018500899180191,-1.3909269783479368,-0.23574367521628303,-1.1406873880131985,1.6116084790454568,-0.073489195712140853,0.77493219404118319,1.1487135950353675,0.50027608867649342,-2.4699142901164453,-0.32535338784756346,0.47504786271465332,0.20998877274799568,0.9169108575081516,-2.3260871864792803,-0.99991187750030397,-2.6574035265507021,0.61112480903347244,-0.37739977234831945,0.90812166293976404,-0.29656264892025419,-1.1646743886040978,-1.428802034404238,-0.17371655407799869,-0.62834275415864105,-0.6425274823898468,0.086539713915863153,-0.22680159960725094,0.60101124663622618,0.96434753512780613,-0.54190377909276122,-0.38267938602102752,-1.573846749379394,0.53246726225448682,-0.56166823844920633,-0.41328503485985907,1.1510356189622291,1.473329854034741,-0.9820669568194168,-0.74824329180489713,1.1440655302631386,-0.21887672562503704,0.07784390325034013,0.57979818079827594,0.1526521779131981,-1.221368252770382,1.489010027076628,-1.6166413132257462,-0.19436789968716153,-0.42818745664889318,-0.39400717680636921,0.19790785713023107,0.63091245402751805,1.5343188757857962,0.81232993435214906,-1.7258572028368369,1.5266853051058376,-1.4845760165630411,-1.7853546884009934,-1.0629639812076053,0.62356586523128843,1.5184084209405706,1.0515767299131886,0.30462925190993084,-0.72917812129250847,0.089212931180076116,-0.35352492777396932,-0.54807459327408992,0.1739468625646125,-0.47879867688914823,0.068181333561886964,0.16234121639458718,-0.82741902722606164,0.29375577745258447,0.45146860926873483,-1.0568816916002233,0.67005370142621345,-0.69588914803035384,-1.0647362995888994,0.13338404845004723,-1.354587886645521,-0.89766336495965593,0.19787243733957335,-0.94474761908277427,0.68192205257529337,0.69322501391317903,0.91310855733497787,0.43635736889014037,-0.72791514542346913,0.16133247843338222,-2.3537003139802559,-1.6969893296407166,0.57449266430838297,0.42988392469543596,-0.77082280651810586,-0.84251499468346314,1.0125368027430972,0.90347516879540135,1.9255186093532053,-1.0621074632270839,0.6691462752846129,-0.013928012696837909,-1.2411270182876468,-0.22879121426403456,0.14048475484892281,0.091644396930908895,-0.97449027026490831,-0.34288176419891997,0.45101801974769784,-0.74144279985011907,0.82083891798140785,-1.4695679820825489,-0.52101671071025868,1.1879052910175116,0.95486615281742682,1.8434523227315958,0.62403336556306721,0.37153083536160275,0.82279403959414266,1.2828658415853722,-0.42973486008758871,1.3943855851410762,-0.080480859394377824,1.2818990121415881,0.90213291054155609,0.12824013742021315,-0.33704582679773776,-0.80875524995823178,-0.35006430145081663,1.0420949338841403,-0.24916609980276605,0.79111067155176162,-0.55367933228783617,0.82951560813410052,-1.6375583468480701,0.71250663159410466,1.9342668434483217,-0.21247098270914611,1.0996951793310017,0.34608399604312756,-0.14442270692004217,0.86742113742392002,-0.14311069916509481,0.070728645954828057,1.2979744507822768,0.6519972357940419,0.15761686085685087,0.1773056172650315,-0.46576693568723643,-1.1217210897959786,-0.88026522244911898,2.5511361848694114,0.99774207545344584,-0.58911658878520901,0.55534679069905746,2.008448331287596,1.3980619609778739,1.0824971097145673,0.18596612042168928
-0.78747656333857408,0.043660854136489027,2.4391342665180296,0.96439244731020113,-1.752404373576526,1.2411167072994611,-1.8288790477282149,0.1508076663384488,-0.91598367344642628,-0.43397512612131361,-1.002654001998408,1.3136479787502358,0.56945897548375435,-0.72215073314855416,-0.25958009337971943,-0.3647831030804054,-0.17538544884304821,-0.65209660057164531,-0.73138117807047653,-0.82020314873037081,1.0773092504062751,1.3162043789464895,0.042592490557179792,-0.82239351668104643,-0.36409115825933136,-1.3877231702894344,-0.76907496153308885,1.3004015861694957,0.38754245540850191,0.36851678169900848,-0.20949589368242372,1.7159679413599338,-0.55600478202986148,1.1430003100929276,-0.60242260999637676,0.7104913010547631,-1.4834299809239411,-0.49015342480032159,-0.059434646870914425,0.61178645119776109,0.50933617588282309,0.41437976260407844,-0.00050934317492772367,1.6444412344983073,0.67221881269736261,0.67130675314420762,-0.7488253618465629,2.1763147863514356,-0.61405845603900011,-0.84223315362096984,-0.096202332747730573,1.507020179655796,-1.3982749580953149,0.11004228607356746,-1.1151113854329253,-0.1618452047745364,-0.16635167059953906,-2.4293163101685438,-1.7112549457986785,-0.6223313000647448,-0.33969519070186782,1.9493347275121855,0.7463112060569137,0.20653301952335471,1.1094447119437549,0.6169596297455604,-0.85888407648627074,-0.80024582136600364,2.6587359022553763,0.13517998365623235,-0.067287511079046292,0.94204742670671304,-0.59156713322410404,0.11190194667021457,-2.6450869347908252,0.32049041218430885,0.28137366621315629,-0.17108867864274527,-0.22080804072960927,-0.96196918592019887,-1.0017716131145431,1.4583687877681961,-0.41004776904833634,0.077584479499814507,-1.7612261920342107,0.292136549803724,0.1314142191027251,0.40467507022156463,-1.0292870509714107,-1.225186322324493,1.613967526083216,0.50278211017417973,0.076313893511650868,-0.90937932547400513,-2.5244044391803313,0.42719999922289115,0.63429683043382512,1.6151747457961634,0.26059868738331537,1.0121924187227853,0.93119756307114787,0.31392624706048233,0.46270826894601197,0.41091848759776423,-1.9067664848442984,-0.51840462742285909,-0.07913972994562242,-0.84699549947829689,-2.4163284422490978,0.28895562328198504,0.10072939988866099,1.4118257161256349,0.6055970369322442,0.27537195061190572,-0.77854067874745458,0.97994941956185921,-0.80711875086766716,1.2857556001740988,0.82132676188877374,-0.53134582798144114,0.42053342488361761,0.054471458504158479,-0.15895334805342143,-0.48968115974984311,-0.68872878820614514,-0.59062614416094572,-0.36029080469084368,0.95807098113727784,1.8113781920374994,0.0087518969147918051,0.63780213679455744,0.099251738949090507,1.2487942686190645,0.76905378575313799,-0.60440574535745384,-1.721510753579931,0.090428953065112963,0.19933941613821338,-0.35571071969038431,0.52410588143066072,-0.42153220532396213,1.214312318700884,-1.076488155913087,0.17404365035003266,-0.41293787886763866,0.24457568389406742,-0.31414490477297774,-0.19681697793921191,0.16675218016456325,0.011416352439673809,-1.6331921562420468,0.31605553509038076,-0.675409055545932,-0.45903200728698812,-0.27635367642772712,-0.7015002023422533,1.6165106960059576,0.5923562378093048,0.070763465774057288,-0.71489941885608443,-0.75512598403312126,1.4650156399215819,0.37039210039978421,-1.1580669580611422,-1.4254685597281078,1.2650338195578466,1.9371188405427442,-0.79924638923060298,0.43364003211225166,-0.48149997442636405,0.87123626064058446,0.21310387041107351,-1.7472002591342535,-1.6660027836415578,2.3520799777280241,0.53959648604184041,-2.2231970890866952,-1.3254343613687909,-1.8113058558632906,-0.19375244813191697,0.34732739732961559,1.4335442181668288,-0.84210928338131796,0.22626759913173844,0.58899014142117756,-0.52804272160156673,1.2648832950400932,-0.28197604390590469,1.8500304668890633,-1.3567105114429583,1.485559695950452,-1.196318781370511,0.37360330136271963,0.18336615167991391,-0.97845558638837282,-0.24964854960902688,1.4457447987313801,2.130404217463751,-0.86855554576312233,-3.0627007092770628,-1.1602584805201006,-0.041309637606804082,-0.68258773830430741,-0.13584266292172434,-0.060221759703131622,-0.57272696391926181,-0.2353121903110682,-0.4157075570112484,-0.70648547341654344,-2.5006712479917454,0.39551333553399565,0.19696835363093765,-0.91852635267069038,0.36507477723595283,-0.1062183822785758,-1.9446384551731799,-0.73458402137126844,0.31956977660002989,-0.59788623776341077,-0.87673567070103564,-1.0138318206441672,0.064799026382938399,-0.32720856331265574,-0.44262808657282698,-1.1327064160691407,0.68079180432702113,0.74220532555585872,0.21968338886814098,0.1122700969429776,-1.2479646273131988,1.2589104018350525,-0.04838782108127871,1.1373556820843762,-0.012163238634481481,0.17565954313614443,0.36034348956252832,0.63652724088237944,-1.4359875141539284,0.40085742534724317,-0.1121057160490464,-1.4198451876617517,0.07241071098339856,1.0196366067178504,0.42511918275932908,-0.11559955974923976,1.0360226944719726,-0.08691975325808976,0.4781578312023082,-1.5787049675515665,-0.39785427972813653,-2.7393801516283571,0.40213597683824542,-0.030459169409792274,-0.74123106128491822,-0.52357617686282421,-0.00018378989391347369,-1.8394282433666984,0.73535376361950389,0.35909761552621694,-1.3234878145566988,-0.21338881644249347,-0.56077359907085922,-1.4601383465891595,-0.61265265840067162,0.58818344491353125,-1.558715428222105,-0.94890389400666175,-0.57290493426628353,-0.38719708919412194,-0.036547400069455858,-0.93314213209855812,-1.3363929225092359,0.20431718521352915,-0.19500649586948815,0.72043356383731816,-0.34924241574477227,-0.089027257982481095,-1.091729537265151,-0.85232879622833468,1.8101625859830268,1.1951928350760357,0.41504772086153979,1.2577655629920161,0.069260105486467605,1.4184618411589553,1.5641438419548885,1.9702393876806927,-1.3062108980791243,-2.1162341493238688,-1.5290304083328981,1.6596483849838883,-0.51640797295992458,-0.41057482278192831,-1.2482268066257047,0.87518629581430307,-1.3161283423425298,0.85599849843809117,-0.16736451215742676,-0.87786973098825682,-0.69515448887459597,0.64131686357062501,-0.82720550255629266,-0.70266180458723859,1.2248447804813245,-0.79147884212834474,-0.75329183610304074,-1.1740556096145869,-1.4297241648625754,0.046334671128968573,-0.39855244355822506,-0.33734167026703626,-1.2645704429639366,2.6465895331234366,-0.64128198122836166,0.73316054649475926,1.1853835104076096,2.2435894539604138,0.35277583104792909,1.7707573637893288,-0.18884839626728492,-0.23424582826634613,-1.2715673433962851,-0.48943451629559248,-0.94253794496692589,2.2669046512250417,1.0079643666835296,-0.16480272176425043,0.38959652165906156,-1.1916715689743265,0.45631620017026753,-1.2339127688107281,-0.30147043078511004,-0.13522031064423817,-0.39621942418880557,0.54563680653889035,0.8493733949024056,-0.38023178837277555,-1.6804574302940751,0.23161408141981837,2.0118571818830442,-0.27899937758823301,0.52457439435656206,-0.20399155655539972,-1.2295706598632392,1.3752865009854707,-3.1632093268542611,-0.36821316544472044,-1.220902137539325,-0.0086461678658307471,0.63312473018906801,-1.546750144504204,1.2170172919948283,-0.66305463867847536,0.5430675990135474,1.1271140550643235,-0.85127648193055283,-2.2256473066119118,1.8945766680038334,-0.32602921887277825,0.050025796637775129,-0.49829736686114773,0.30988236686972903,-0.20744005154290768,-1.1585287094200758,-0.96519240684147478,-0.74985388671911479,0.18842568841515894,0.56546648236491714,1.7580241109984687,-0.13396803319851525,1.1086557650241806,0.33130470396020295,-0.77358478550261112,-0.28668651478837759,-0.15532981099459592,-1.2558012614319474,0.058680074772986902,-0.15329522098213685,-0.8116450646161204,-0.24807016148362698,-0.1193353035925067,1.2382519017334408,-1.0986101954092158,-0.074141980816609498,1.6856211497933695,-0.15077664041848499,0.6049180573611237,-0.43435180028317916,0.45722156987947371,0.39314770642113134,0.50619259831222974,0.3155813134893265,-0.90949548415347659,0.15404987956807059,0.84036249724537881,0.68400653476784001,1.5182009334637663,-1.0890720873454698,0.34493442534722224,-0.28576869415331602,1.6352894290994995,-0.065512217741572495,0.37204917085632605,-1.3738764729649431,-0.21956903372337891,1.443231147225849,-0.9473559532595216,0.53634562792517948,0.92274727338648388,-0.10512920247234679,0.54197715161057602,-1.103899059342228,-0.32139542864908227,1.2609828248200112,3.0824164058306631,1.5338095734515418,-1.6765757716959142,1.8488311376807209,1.2947635846033183,-0.084293352319604456,0.38368492827024542,-1.1422384982948723,1.1487156238391312,2.2025382009797672,-2.0369945924403074,0.38935898186442774,0.7539801382428577,-0.58675603735738791,1.2651680882741962,1.9058669348094572,-0.016687874518922625,-0.82887453075428386,1.3852018665551435,-0.19192908115827126,-1.1921770881200993,2.5625553627406963,1.0566229774324329,-0.12903110259232969,-0.35054986566190766,0.52383067950401596,-0.63219338819920168,0.38702287277166203,0.91796373762721206,0.86665675256141572,-2.3986196190783908,-0.28041085226446855,-0.043382256406047717,0.61156994779391671,0.91726994391128136,0.25750415769378104,1.5279555728800429,-0.28959283027043414,-0.1726298477066425,-0.70170036341996656,-2.0185635728636697,-0.57569934359295738,0.35135577505475957,-0.39492465442114799,-0.63826435970818951,0.24478097808138188,-0.073813375998669301,0.33738378521737439,-2.7503417022166232,0.27698482925880696,0.14343163752860716,0.49719727125635593,1.5777687971846865,-0.51095384496140861,0.32915888449298963,-1.201759512200111,-0.0047673030403948468,-1.5411465854016762,1.6160122194864563,-0.86973157642420706,2.005928194234218,-0.43579208528575797,-1.7800817640360753,2.0444535357354563,-0.87317408648871564,2.2758700976337694,0.0020766264646047356,-0.9687740345067396,0.59836943995147507,2.0631219972872392,0.2151596987746732,-0.9612964957603527,-0.62419881577892089,-2.5229543847300606,1.4380963007360608,0.29175442754431413,-0.75106667045026565,-0.038659298004378451,-1.1275231151807759,-1.3486873524809686,0.23635034702197513,-0.6285362171479536,-1.6246473552709539,0.85443633108898354,-0.35587557802032516,1.3207374479649399,0.51779434190818119,-0.8118960378318496,-0.31481320719233841,-0.72675098434386898,1.7371915049011544,1.3005585170740324,0.68539713169026673,-2.2387475107147243,0.47136417773112227,-0.055604488316397922,0.65809783098166896,0.43651579536735158,0.74088467368116451,0.97396007563570552,1.6911422529311821,0.76979186586940251,-1.0252738893097459,-0.64973954948927415,-0.79509956034535811,0.15347864766459518,2.2598617327570829,0.46171194463091314,0.74834049102644107,-0.88283185441966805,-1.1546129648284083,-0.02896600112701295,-0.90301838882726249,0.76443454041492898,-0.75291278724437893,2.096704595624348,1.4465338013678113,-0.83390277557625059,-1.4920737149892482,0.76154837649951224,-1.5758739334090091,0.52486346775615655,0.26187199552327961,0.39301008175136298,0.022286099788620246,0.96582900732777432,-0.2734256152340741,2.0749620693021886,0.74031433273285552,0.87912516506166583,1.1647490477286999,1.0120089510530641,1.0450835172285551,0.27158991017690448,-1.3197293287398348,0.49298962334570245,1.5423861003040471,-1.3252710122102451,1.1265698592989768,-0.26619361221299759,0.34534686299475265,-1.1212790218523445,0.55256960305880409,0.080893614802150154,0.57532678694042738,-1.1336436972757657,-2.3092092469618648,0.85461867685303128,2.6231908865429068,-0.23892708108196037,-0.53185203832537253,0.22876236940262407,-0.15384561820230935,-0.090930141237953288,1.6324706354356857,0.8344469225096337,-2.2722252279681019,-1.0927154017161729,-0.15193898631123376,-0.94876475158334639,2.0580813793843578,-0.79765864328942981,1.4817340792209694,1.0925047896651596,1.0491039936291779,0.11322038903267694,0.49407189144167546,1.4401121765304217,-2.3542680486003356,0.96489152886193907,-0.0052278737093553341,-0.40866394197010947,-1.8365877075562329,-0.080398718012512138,-0.55435172362248553,0.040450510481625089,0.44614384090956632,-1.3055598979634622,0.37939660547075715,1.1306071449156621,1.5231383837654096,-1.0994220031416353,0.94708703181943077,-0.86594805691929722,1.1916770857988235,0.4512293691640204,-0.31187716808894911,1.5145212433730566,-0.12570127197422187,-0.38891349714429385,0.51721183579389074,-0.36792011501218541,0.20081437279366626,1.2227885588098031,0.28119641945089963,-0.41080987764095328,0.19931803492632588,-1.390494325410609,0.65523698358308036,1.2896988140344374,-0.32956834680457026,-1.7054408343514387,1.1912054181443508,0.2033415833303375,0.25999757644766242,-0.40343669854913355,0.2347121742206377,0.34312973919050654,-0.39401034059921497,0.57596111746525447,0.76198097651291152,0.94029015370640623,-0.321930320747012,-0.1040006951784377,1.1283873515411962,2.4098043983755231,-0.49270120591610317,-0.20750396798731471,-1.1295689781360354,-0.48248454329943646,1.3289690517026935,0.8744750046809916,1.5814012025287976,-1.8467686457073935,0.3971969253987222,0.39156045626964026,1.1835073100606823,1.2164903772232007,0.26816902080460991,-0.050128226459068635,-0.13970085083142236,0.060567709018478806,-0.10798643597568199,-1.3588840595953415,-0.34806126511976532,-2.4153002024844055,-0.93143739133738346,-0.43537992458900288,-0.24319390689932763,0.19291967447391506,0.88604116120069909,-0.61459549655987711,1.8579269657109523,0.66107284663241672,0.44465683956504293,-1.0437561518763747,-0.39005343907511231,1.3703461061876003,0.82733007508668011,-0.55899256557027699,1.4021462964141231,-0.12808065882099715,-0.61831772881925562,-1.1933197914470561,-1.0570195809174838,0.33815997842814571,-1.2370652414054388,-0.52233451119681806,0.9231486786414822,-0.15192399103450482,-0.2301633863475214,1.4074121803864377,1.8453885175128011,2.0246672811773072,-1.2280742594125125,0.56120035875829044,-1.0580158792813141,0.060844813723331399,-1.5911579527719655,0.11044985761443257,-1.2341435547369113,-1.1304975313112979,-0.071964006752060244,0.95744829233362172,-0.12195808870860018,-0.027408255087958539,0.56089793514730313,-0.17787220219276251,0.050341905337094303,-0.84600533504324293,0.10797251159883928,-0.42298770686760168,-1.9933758869954972,-0.11571942143369821,-0.49440365940631203,0.62765567668117372,-0.40370072752066122,-0.3907994043244995,1.8540231580563742,0.14057859642954715,0.85821697774863082,-0.6135646181219514,-0.095395988076441715,0.61854261301164826,1.1532742597352628,-1.3890738596645074,0.59828094867971437,-1.2044077558574773,0.043480285689193189,-0.23484290370764785,0.71882446376363063,-0.74250221950537088,0.43608995596062938,-0.88668729686046155,1.5917002683522941,1.4667862664936984,1.2334710672473737,-1.4060043490155927,0.15443544733882372,0.28164321811274062,0.131297580130569,1.6360930263543016,-0.32153846455492874,-0.036329349813476852,-2.4945720901325137,0.011167212011783464,0.2397726271360594,0.91909293408107284,-0.026422371958180976,-0.31279114570326882,-0.44634070389206493,-0.84982827001916206,0.23909537767788192,0.72043474692434828,-0.83467876913982686,-0.16940796023507751,0.93851852777512579,-1.3097110156646803,-0.24226514294292714,-0.64872420628592387,0.78197444332579624,-0.5019517759631118,-0.58646884383827902,0.26371505044110377,0.55014633311800254,-0.4978115884391312,0.84494995379998905,0.65093460518074675,-0.66196573536721071,1.521203698945508,-1.2463350287034975,0.095652907125596015,0.077039563283378382,-0.47666232635814559,0.26147178273774951,1.0667847963031372,0.5653137347098639,1.2080789013771607,0.39769088573687872,0.632427730791706,2.912462917154111,0.34753078893519523,1.9036908131799386,0.77650045194780859,0.048359017980102975,0.23582402368044655,-0.39367131971112679,-1.4034222606358915,1.39684959644012,2.3291441778932276,-0.71963856837008822,0.23990314824118725,-0.58884558006488519,0.32960248666685776,-0.6046982924803227,1.1810107856056433,1.3802933065200955,-0.035037748277547166,1.0077437388393176,-0.82172166611803521,-0.69844219905038163,-0.67835850479433113,-0.74489373238359902,0.14029479809497097,-0.46084249555725565,0.98028516347321537,1.2119121617579676,0.78783772093923643,3.123353506833908,0.34519889576972196,0.72473467719636708,-0.2037352906385558,0.75650063788220034,-0.58496777863112681,1.1674123317472025,0.47180971509977054,-0.22176914625807334,-0.66596853554744562,-0.65851786441685467,0.13019489552576932,0.035722136399202853,2.8919996048407732,-0.17860092010272141,-0.1155545669106551,1.4202170795609927,-0.53263318641670521,0.10910928248388972,-0.057997015756478677,0.6719114279569367,-0.11674227898967071,1.0141817187914925,0.11528020923247072,0.61538966838526155,-1.3736996699031048,0.32445966788449848,-0.4937784532660231,-0.045038922496792158,-1.3871839405483919,-0.93863446901007463,0.41301888692505501,2.4032147132726083,1.0022571155539353,-0.72127956727650322,-0.84755933583354837,-0.20260079763740765,-1.9911818284420477,-0.27833819687802219,0.13570762378357765,-0.94571129429970768,-0.29237374508860708,-1.6082484642959411,0.60410137465080171,-1.0341147281565344,-0.86688419461097566,0.42167788544376994,-0.053186015947307583,1.1286282065671887,-1.1953136306625327,0.85361035617365133,-1.3627411322883676,-1.3923354837472812,1.3212083137028177,-0.56580383516961796,-2.3994771037982909,-0.17194160251991938,-0.68758207102321867,-2.2834095815791797,-0.94930488087707909,0.22045439811718268,1.3209181987575609,-0.53918523372351657,-1.7982782738435836,-0.35723418401356255,0.50738303074191082,0.42862174268152253,-2.1163920333434798,-0.10847720568890179,-2.0287310240781533,-0.038374412921937148,-0.77798925941817565,0.21255198608720646,-0.035528910289560664,-0.75233233782544295,0.50165260528084188,0.53025102229484422,1.141262674076168,-1.108968960348256,0.17161576081101426,0.12079942954095266,-0.18669376717157737,0.33927630836806033,-1.0077300725111404,-0.94430902803926131,1.5978034836647494,0.2860830346378313,-0.38958341098203353,-0.92926973495146714,-0.4789510969506276,-0.84644476101328292,-1.1753598026379448,-0.54528098351379761,-1.4020017884180251,1.4402094878063894,2.5396726597753858,-1.0895558097644868,-1.9266480796217524,0.34132549647946292,1.2109651779370931,0.76169085699453865,-1.166776472936359,1.1223920044900029,0.61162741267396281,0.36224053023237585,-0.05744661334190055,0.36811105409339712,-2.1881731474159754,0.44097343517284104,2.2486561449268341,-0.98862238538976244,-0.85345524870600964,-1.1290725763877347,-1.4012882830150268,1.0950307108009838,0.37303136562947536,2.340491679761453,0.80317098996981795,-1.2452086331844943,-1.9214023989740812,0.54392976654815473,0.039274332540098288,-0.7507478258546566,0.017443996571588977,0.18940643151972433,1.4390750578015599,-0.0047010896059224332,-1.1348391296312321,-0.43127482873107786,-0.57169921271168123,-1.6249590446362483,-1.09377720172084,0.09533856155926447,0.7744024025847831,0.62327285394339638,0.29353898642965609,-0.83537921289673689,0.31338453036007985,-0.67544745591302013,-1.0919360180948883,-2.081648184165902,0.57556415997300581,-1.1500784988928308,0.23245029070556122,1.9762616587295929,-1.2691141223257549,0.24264413785263059,-1.6093925862798781,0.26160892706817918,-0.54556589136567379,0.84830817050472862,-0.14636178760272964,-0.34465672349189708,-0.76776723131152302,0.11498343423337593,0.33838513955506849,-2.3813037087972018,0.2732828600829873,0.63651515773464939,0.87013132380581071,1.1125271894668536,0.6744393367967384,-0.79445759500833835,0.12959084141177982,-1.0149641893235768,-0.9826782590082368,1.2926299209624141,0.22814847846769157,-0.47354695587815504,-0.20556661954637279,0.45354696931829469,-0.45298115530507765,-0.72824087671892024,-1.5245477241598042,0.40025598364712855,-1.3071600452313976,-1.1906376352375485,-0.11954013339765998,-1.9839782944518269,0.37699495827073337,-1.8160909289786076,-0.28629407075490881,0.75613804260228878,1.1963322378576928,2.0483605706833088,0.1654451590532354,-0.73427086356027749,0.4932382488180822,1.1348388215317839,1.9893517223593833,0.59536240486740954,2.4488380493328652,-1.0893323261171368,0.10931354414961313,-0.63209170055025998,-0.41791601561188979,0.98400348773188673,-0.42249819804899885,0.48927833327128106,-0.74597594684160107,1.2486098346252381,-1.0659936572910915,1.3932547079066415,-0.14891943453138465,-0.87941276759598197,-0.94503235168625999,0.34455478414985391,0.055011934214542646,-0.42605620311305836,-0.35930883693218063,-0.0076946113171047336,-0.36467419115186273,-0.53633860943836142,-0.18584711421175326,1.8361131603913867,0.88861682406456299,-1.1850764234424027,1.2209286880410923,-1.566169495936153,0.87261834133911709,-1.3111608033359652,0.11619372070377339,-1.2925307377165907,0.29470315336656105,-1.6577461742552062,0.12897984659942272,0.031620612729702555,-0.12269639744431622,0.85107142308818784,1.6908000415442972,-0.93146739951699409,-1.8695740438879962,-0.15095264113092202,0.38648646963272271,-0.72485924051557893,0.85982439721580461,-0.36954495332915122,-0.81379582198431955,-0.8971755519096003,0.43334662902740517,2.5251150996030556,0.91532350235773796,-0.58908223574761232,-0.11120465353343506,0.84292952399976884,-0.45028378746620479,-0.13800393777749287,-1.844289616727701,0.76667724088512446,0.080585960644105392,0.83449880570983292,1.1077384666272374,1.6691287508023707,-0.38345473691924686,-1.5778338788574939,1.1985941196528476,0.59522586943667699,-0.56103992099064626,-0.15628482006348168,1.8302046497527682,1.0535766175389216,2.3479823199324841,1.4372374422789069,-0.57083762636756108,-0.83488086879990553,-1.1037053336370384,-2.3295137812964395,1.3519211742045969,-2.0558941125901686,-1.0274254162304175,0.18735777062308312,-0.42332951748728098,0.98483128748970628,1.0328105896315263,-1.3138609028391826,-0.65199473794521567,-0.2875079694157251,-0.24247743136277894,0.050118093925499506,-0.45724517726603864,-1.0082675019847833,0.42559002960433079,-0.048877108953695771,-1.8290614472032081,-0.10389044222974554,0.25490029280251647,1.9552504032488462,-0.39810538882104163,-0.38245750394116745,0.61213014606733496,1.4800027952866455,1.4708003486160814,-0.52303738300136482,0.77953893575566868,0.35168292353391717,0.59204383570086283,-0.3678491728015732,-0.043485996608964829,-0.91833368224906442,0.54671403176109112,-0.51737537990428006,0.011504304601023453,0.050937502447252606,-0.19618836749758892,-2.722468973713748,0.54674406052322966,-0.20190146738147252,1.8474294146635006,-0.29293383653405286,-0.13654208177724453,0.20342076031698905,1.6101558567578544,-1.0289173500421953,-0.29879712598853214,0.68700077950775285,-0.14930527486170825,0.10238288034403595,-1.4393936795273754,-0.66164896308413457,-0.099011763816452283,-0.69458185547058704,-0.4088752789793838,-1.2826159132024761,1.1716997131101692,0.58128927797639651,-0.21245442613572929,-0.58962205179109661,-0.66456747749122036,1.5199381742772522,-0.99946512668769794,1.5213463453989446,-0.89583427567784768,-0.26548263788455123,-0.44770154050080679,-0.69915242187200433,-0.79472019005904804,1.9286829884592009,-0.87750901452557828,0.98897487092753156,-0.26679897005344139,0.0625499166162444,0.7299100096104838,-0.58153305993523818,-0.43965752843560951,0.60669595416642441,1.2490022072259779,0.96233068127129051,-0.56383247771589196,-0.022269206450395557,-0.91646712534727526,-1.2529309530068715,-0.59750545325725046,0.138245775125379,1.3494619102706895,-0.036938807793291777,-1.9335821822033052,-0.45543543820307314,-1.487446723086433,-0.40831404909850116,-0.2662361987616822,0.25566249154637971,0.86095956520922323,0.58577468986288783,0.10566596661528022,0.31364683230323331,1.4315813950806942,-0.91142152894200446,-0.94532370443710034,-0.18530648342645917,0.24365634000601594,-1.1405069519831716,-0.46759601541749585,-0.41925105331870666,0.50597008111077046,-0.0058577819810716599,0.18311459246266373,-0.17046265658964443,-0.23843089639055079,-0.48375891825798073,0.93230645683792979,-1.3871157470930946,-1.0616253435187413,-0.23284754450491837,-0.45812971908046679,-0.54612543898543076,0.50892070482378238,0.11064972027211828,0.9931695013283236,-0.047679432759842197,1.7540519265831054,0.23248141681724385,-0.64552371774837103,0.69900134519742418,0.51390712601660271,0.77926317503763964,-1.3548931607551566,-1.0135483519563935,-0.14190236050796881,0.45405822752250741,0.48395064601034338,0.008452044469317915,0.39735586378690707,-0.57865270222640963,-0.55979067625195222,1.628359687165756,1.4945325435796755,1.5053251902262281,-0.47629737594206306,2.110983085298535,0.0081589711851645912,0.11397913689026164,1.082711832126616,-0.55444924347991698,1.4153217193968057,1.6019465118734029,-0.19417026893172312,-0.71134820319063297,-1.3550705400761027,-0.4257510134787546,0.48479692305815247,-0.99682987600689765,0.21201842944742219,0.76152469288814617,-0.10918787486918324,0.77974042752632111,-1.1807380924950004,0.59041704672458228,-0.086132043220592466,0.46704223136861667,1.0968464539328604,-0.81720909987599077,-1.2241720289516791,-0.82492109349833787,1.1161747341113697,-0.96113189258041265,-1.9477306252956186,-0.28908909687968248,-0.018954339951615166,0.060100802949910638,-0.9969699759407139,2.8199330553210054,-1.217262049380313,-0.23392006199494847,0.56538949214756395,-0.25847208636297825,0.95335600749013094,-0.82754517720511656,-1.4370348557099304,1.8260378182344303,0.770281988052681,-0.095914909827495162,0.28956416977495603,0.10922653143587253,-0.27891816443586814,-1.625266928004188,1.3059923090901095,0.25286132849853954,-1.0021724017411131,-1.4948436133209597,0.10819743361515473,0.092784948068640752,0.28255278608445344,1.9137239525862548,0.28278567588630121,-1.4735730653518875,-1.6602289409902871,-0.77371041311527433,1.0422830310731424,-0.17818371163301025,1.3153647738947016,-0.8117771404596914,1.3630598494401571,2.3735102356943685,-1.9160076490002631,0.58558143563079157,-0.29514957721934704,-1.3488322776203669,0.22498763473244071,0.84362541808370228,-0.52126820494847514,0.33304593935947358,0.82191749952215287,1.0284683706601092,-0.10589896954658359,-0.1279917583987204,0.97900794337473374,2.1882616184151886,1.1683776561664621,-1.1730330282589605,-1.7341014543833371,1.3810368775231869,-0.31507521664153498,-1.4346982286834631,-1.4852236383001343,0.17100121053958206,-0.070440669577663678,0.071452537573896066,-1.5597508946567458,1.4414477887907393,1.0880360218763792,0.8447959555801513,1.0491467287535643,0.77686454546254291,0.90259164199814212,-0.66197120845776314,1.0625253631689584,-0.73929583693225287,0.73898497905756177,-1.8862440322923169,-0.2016184670000071,-0.75367537298955734,0.026070897717833861,-0.15606099485446298,-0.3274372712334494,0.49904944501433324,0.49206240047053279,0.33518991685169869,0.20879565542467166,-0.07240931019098179,0.9127304836922695,0.6747924548596832,1.2558533152604321,1.0775233821084167,0.76651303169750296,0.93106711856331215,-0.507795635778024,0.50308050756907807,0.33435440718896964,-0.68096676788143229,-0.57068734740562033,0.86867485662701782,0.044276659240009335,1.6798136250966482,-0.74493806413810182,-0.54133159314041368,-1.152733824857723,-1.5985745029457168,1.2638388526643165,0.13862933239808983,-0.7286847286499557,0.34252534417644287,0.64577773877783373,-0.25714075046413787,-0.58498397824307891,-0.21873992750216997,-0.88634418498022227,0.92200824865906017,0.80261895028443486,1.1013263910917268,-1.8381323583521012,-0.24628903232382632,1.4873896854265247,0.38698855348474975,2.1982526477835638,0.30555724743193674,0.64924861823569369,-0.3037614937462767,-2.0355073019640049,-0.69926645254578224,-0.29873851798061385,0.45619778311239362,0.39084029016999644,-0.41149579888527998,0.63006531994209969,-0.32300442185970879,-0.2747595686897103,0.56696978600606218,0.53672558404919324,0.36867691986758616,0.15171681607716617,-1.2234238680292879,-0.27001992232894173,1.0616005513492826,-0.66950046576824529,-0.036405961002249528,1.6896960865564772,0.17860592343645729,1.683363114553051,0.16541550066183583,-0.11289027236298028,-1.2434211018746202,0.062043801893111587,0.8925756271876526,-0.60872052647803121,-0.15046080137618825,0.18011335677768639,1.1017363389180408,0.83588663424116494,0.12506427054184072,-0.76387434845923208,0.45726290913611278,0.92174310716665198,-0.0072066405896410446,0.36564284259427648,-1.722407471361761,-1.5401864409980941,0.080304379441012888,1.1738488200934942,-0.6969198386099269,-0.8859134559657128,2.5497389270740176,-0.20214617691971626,-0.26417193663106286,-1.1094745974849376,-0.39692252793348576,0.91385961362806922,-0.71954489233246455,0.22755416282582155,-1.6050645453767722,-1.1639016547178063,-1.1185108841226032,-0.1759244644898926,1.3563197527772473,-0.062860062635504504,0.73608888571201181,-1.9452512873262049,-0.78946313337226559,-0.22543545565607301,0.48460442491333683,-1.0366260659105522,0.62949841084960378,0.14041655610863393,-1.3329616241991531,-0.89831368655685528,0.6341247577570549,1.43581067101035,-0.68434762252504466,1.1875933815982016,1.4038621449062398,1.0062815962147778,0.16102216474239442,-1.2912436442758994,0.50237275037347262,0.2478574306558291,1.9401640374145381,1.1433472151810922,-1.5092820086173571,1.2368969457309098,0.84414556193500101,0.56373717847851856,0.13007159998883758,-0.29450855125353259,-2.0045810401676682,-0.22346257908586942,-0.2917946240715687,-0.57629860584800729,-0.8568658749663941,-0.4890003215408944,-1.9366403713300469,0.90623193498693344,-0.31833527759363228,0.36918522438985024,0.13387315250284973,-2.0916801483639444,-0.74908548141522358,-2.2698861743126511,-1.3889721355214675,-0.38049314187745237,-0.13447565179890802,-0.036227918651396303,1.9899731948815043,0.70755822292779935,-0.20512381657906598,1.2444307509286885,-1.2245734269200015,0.39595740220385656,1.3896301258748556,0.95491384282327318,-0.083537448503969214,0.61533072321736626,-2.027987518791023,-2.0098306597136215,0.4968655220498383,1.9351192774106469,0.37338651980510446,-2.0489248503060074,-0.1490296306013843,-2.5488057505536377,0.4326595693574698,0.75449580555915274,-0.42200099250111961,0.15861787532517599,1.3693988282094984,0.36131295905312766,-0.25706064463539691,0.41777535945308913,-0.91149463143334575,-0.70445698052517536,-0.088784624244909655,0.42363901786692226,-0.84752212571177776,-0.14589406676060579,-0.53370952438433561,-0.063696043444639028,0.091562885135131861,0.69089398989351603,2.5696227556733926,-0.15876723449108149,-0.55754959908784896,1.2270359009783252,1.4890412010583198,1.042087556856286,-0.067155741506312497,0.77783443580125866,0.92732160408598086,-1.3581817936243452,1.0054359808287809,3.4169925399374321,-0.10823683139360896,-0.05328378202000441,1.0893637347412024,-0.17580872777367448,2.3131987964825349,-0.22388201990576556,-0.22609248484983321,-0.46656727727903735,-1.7212940677365589,-2.6580462607526831,-0.71328862818476124,0.26423000695151411,0.42445439366736171,1.3361068666351426,-0.39769634552065664,1.2865830314424416,1.0527956623281034,-0.56902408199931009,-2.2960923146671974,-0.011771380178909115,-0.62243355138577627,0.16181138505940984,0.1614001477300416,0.13579784912826853,0.37730222790214141,-0.052118616652324146,-0.35736744054181474,-1.3169897438602443,1.4557126695484999,-1.0187279561896565,-0.19338236637932021,0.052062147346076906,0.41652371167323249,-1.2665646530325649,-0.77954952954939039,1.3940159874438875,1.1219339842222245,-0.18561817427265284,0.68711908944592603,-0.084089214917864918,-0.94742325608204225,-0.28667731805594265,-1.0683023999953383,-1.8062560470897999,0.63094045858392511,1.113790119332988,0.25870381178768254,0.22066692542744287,0.78217965962437341,-0.28079822908731938,-0.53891921489893102,-0.91446074606886751,0.8069916731150969,-0.53786859155536049,0.18962969537976546,0.25256277850461123,-1.2607561088682875,0.91273623123962477,-1.8476239470576059,-3.111693685720093,0.88462081827791794,0.29202679058343722,0.66013705635099573,-0.76390811899712996,1.3019878075203262,-0.43056796815738191,-0.52851062625546275,1.2569480097725183,0.62914106758514043,-0.87332630714289772,1.4060306010667449,-2.0153432898199726,1.2147023448603167,-0.011816474044326673,-0.54055355356935375,-2.2859654175353623,1.8625202309290749,-0.070284608927180442,0.6930450924464796,0.27253979870377648,1.0300732401746564,0.36890271515961304,0.3573710714090394,-0.21233440959383978,-2.0346875017819235,-1.5814634309208251,-0.97981315354764753,2.1159522027828976,0.62011995049083823,-0.060929902182770772,-0.051372643900578448,0.69912387159064449,0.6749008052673986,0.95335868354705722,-0.41388231380592111,1.3323204449907933,2.1625231834885366,-1.225462586847313,-1.4008250174347963,-2.3507440774531427,-1.3898047949032848,0.98521551439996879,-0.91421125258172165,0.25565375893012671,1.9241827511534639,-0.24802371266046414,2.2899532154887194,-0.14182420890550421,0.521591118486185,-1.9368145504993159,-0.36615038800961641,-0.38357081579658991,1.4282385197966101,-0.11399275216043012,-2.968514561020867,0.69934074038672123,-0.37967721911478231,0.38480887925687413,0.53988678139278856,0.95120556862338368,-0.8913112078713078,-1.1737682503955165,1.964239489507857,-0.6261001425120627,-0.23339923238692623,0.77324984198180602,-0.4811735308544639,-1.5939176765725636,-0.99860809565047814,0.69319363881428664,-0.27051230585517383,-0.17363845447326812,0.45548712683918563,-1.0372363972489675,-0.12057568818774102,1.5559027974332615,-0.71200135911179652,-0.23903028300547741,-1.2086402361913953,-0.065616490466001542,0.50540495200989699,0.31038778025864411,0.016804340061560227,0.56729557515573403,-0.21645686086595398,0.36145703463694162,0.9717310948032547,-1.2809627291888483,0.8089793773479258,-0.54621583743864766,-1.1570143131932169,1.2160903074798917,-0.24432438359991002,-0.60217547184028508,0.64247600847761521,-0.17535380338724327,-0.16419388977640173,0.7996266824383752,-1.4709551354214094,-0.026710801367404797,1.0094468256443396,0.99277182205456815,-1.4081542880144868,-1.479435425838681,0.44233529964696505,0.0099935732488590744,0.26214180817399513,0.33256366915983776,2.4200629654376193,0.24881233944124237,-0.52858456402098286,0.51704687137093719,-0.58666646587402294,0.94852477750826247,-0.25902702254729421,0.61361053056635995,-0.61301966880622549,-1.1603774159272378,0.36350861204507645,-0.44003406473877987,-1.1680973157029244,0.43680694000566844,0.73800932477133796,-0.57985892931466065,-0.90670034730478255,-1.0972640799077285,1.6211790610025358,0.30528484870877715,-0.076980334088752059,-0.98862663144093144,1.0249455625412189,-1.1637440958693852,-0.488722610132866,1.02737241914414,0.86534295280903717,-0.94995008753517518,-0.68827154102345434,-1.0484764501780743,0.23976560143202369,1.0751861331549051,0.48544653722426429,0.54430197073257902,-0.58353462028220526,-0.20082440409984051,0.27690232410568211,1.1907579116128959,0.18857348341631189,-0.66873611812017064,1.1384091180486835,-0.45758593108801143,0.19307546374056142,0.086263814812957071,-0.58283477262239047,0.82056825287734259,-0.044223579301305979,-0.73779383508975183,-0.56925183329410411,-0.2019102238833044,-0.17609760168834934,-0.42846812804432366,0.39407467622598774,-1.7061937604525053,-0.32394925536127611,-0.61199497818393667,-0.34158784226716377,0.11504709940677912,1.3773311606570189,-0.72041072634028036,1.7051984318550368,1.0324803082841747,-1.4703238459860428,-0.81501445491688462,1.8224716098086511,-0.10382572438087162,-1.4508963935953956,0.63064039576532882,-2.4895314556288248,1.8121880746067216,-1.5560115528163732,-1.8960594355841425,-0.97273040934221289,-1.4343664235459843,0.1108718587980978,-0.36554029952204636,-1.5543338607048969,-0.93695564624176964,-0.25039034218807676,0.15134364080416651,0.45854437972356776,-0.78173071862736454,0.76627635139395578,0.53935629039056787,1.4770025877858399,-0.49964167547216437,0.65672396821329226,0.48250621209230343,-1.762978116517365,1.061051265996781,-0.99702383291796848,-0.10953656394263797,-0.9591460562727433,1.0351601670253641,0.34145833149871385,-0.40605536588512248,0.75429803702823728,-1.1323924115041375,0.88126565987077154,-0.76451298730845163,-0.63643191980614577,0.27123325358485012,1.6185334789885875,-0.87801760243876481,-0.0076971735123555493,-0.31910438105974448,-0.30992097995660522,-0.69679499536766321,-1.6333625706303971,0.71342832327331529,1.7208048301938852,1.0461325598692817,-0.68246710712641812,3.0426896187739021,0.19371088782067139,0.087874216890013179,-0.088948659211067926,-0.67453144880524907,0.92668620095925458,-0.55064469534992111,0.45874849049582977,0.57419334408020295,-0.38862309902512654,0.31416696027938251,-0.020169614194747835,-0.58538983423702029,-0.15678414404978311,0.20500537757350809,-0.28362750587826496,-0.47124736686829832,1.4561793556651481,-0.60234224318173113,-1.0334259689713081,1.0123221118357197,1.0559805957132544,-0.24513705278046594,0.82359195164253729,0.17538932567459167,-1.5209959461875269,-1.2865499156447022,-0.90433327581580192,-0.3357643555353963,0.99577642551676493,-0.10767047909711822,0.50501366411856785,0.15626006149189725,-0.059529532571860638,-0.57734274068952163,1.4721790365899683,-2.9648467512826491,-0.14442140845118101,-0.073103404833228539,0.77139746328065362,0.66914209523244839,-0.043200673360185363,-0.92860660714063115,-0.34233310195389444,-0.058873062842570524,-0.58884249607037942,-0.46787544457733016,-0.59145627958331171,-0.53158012083572137,-0.45319986674931045,-1.7856437595122037,0.72717574015008013,-1.3302732676418205,-1.1905368152534621,0.67289128746871318,-0.84991498165496826,2.047460437817155,0.4690407811588086,0.74464301158442958,1.3185645211919899,0.46746461674056999,0.16051244052568098,-0.053648502160459147,-0.72569613012071266,-0.80126725667325205,0.81620273662571752,-0.5455037016293931,0.82431067993823925,-0.39563214639605071,0.48340645518180947,0.92534026873903419,-1.6897531992650774,-0.37510086876613252,0.056912355444548701,1.3280062561176618,0.71012784572199139,-0.45943794939717847,1.7767838289598445,0.99615289957898878,-0.88395118392773075,-0.72596180944723676,-1.6641259768791052,1.6685759210769766,0.89369193137719327,-0.47108645456322434,0.05562371921326531,-2.1489011729537859,-0.67455658200060675,2.3928179666773666,-0.81020890665056244,-0.33186097809448911,-0.62435639420927769,-0.70994886115816058,1.2437749587302929,0.89573626197278677,0.87120392129573565,-0.26720254305486196,0.79836011901084658,0.26827432993743605,-0.60441738027396985,-1.0200326089046747,1.1094705303105827,-0.70943904289093196,-0.21678496585504858,-1.4292765552460542,-0.75039590047669691,-1.1289255146407329,0.91277429443851599,0.86482039827176882,1.3791992501471182,-0.16235991959370849,-0.087992766604582176,-2.2495477099417203,-0.41319389478063057,0.47520767721701956,-0.69833121389245756,-1.2898261402535056,-0.18715069596787676,-1.7400997888653196,-0.46958128940617755,0.5647485532277593,0.32052634872042957,-0.43566793163886808,0.71213614627104116,-1.1833569239965147,1.1794470391043401,0.21057387103444034,0.89493773162002677,0.22267896038977306,0.25791526200429588,1.5055209988078189,0.67034675378737218,1.5289750535479962,-0.040979702364198761,0.066228661847016465,0.87289939053149945,-0.46611510571255993,0.40697091582240658,1.284550861185368,-0.68832188764930191,-0.28794709527172896,-0.53262263151245026,0.50788719498581036,1.6051409632795517,-1.4826518641770992,-0.82610396503444017,0.015142769447567723,0.026162967442981348,-2.21642267861901,-0.58969343400739804,1.6066170128202715,0.12495326255282881,-0.97727104733779468,0.38218821492145749,-0.3400420649011644,-0.37317869291373135,1.3321916132906602,-1.1770601743023856,0.36577200610285382,0.15517015758654037,0.4557510966493406,0.44677456796425929,-1.0433791735449716,1.0986876959937413,-0.63049318821705291,-0.87166463095111157,-0.98410608969725633,2.9086993482860581,0.88819138356583904,-1.6322029101948785,-1.0994538258721993,-1.9739574249156779,-0.69199294877553108,0.56391548117690937,1.0143672308572764,-2.5086052428705106,-0.6779878690633705,0.90190474344807092,-0.010086075110984371,0.056886571629459114,0.12374072097950864,0.64399934595099007,-1.2483853587526401,0.82453548351173678,0.14914956266909019,0.73370530829036984,0.82891211098988116,-0.87275678768759724,0.025028667121441465,0.3553413834255098,1.5409234576619291,0.10730126585421111,-1.5707897328719389,-2.1030703656446583,1.1479068679651878,-0.73415214620466496,-1.5932276042179752,-0.60359228106143414,-1.0892214773397833,-1.8570688760741825,-1.192331518157838,1.035294837727315,1.4460557293699916,2.1388873235663746,0.7533766814079722,-1.6284553374018904,-3.3461818750530128,0.42791376631101624,0.27727888679802432,-1.5570697153847077,-0.94906184764976043,-0.15942172360422763,0.50099888131326653,0.31188975487261661,0.042719111594266931,0.47784182007350401,0.1160983095555819,0.55455655162604467,-1.0194489990229325,-0.23302524032106142,-0.25533178816926899,1.5528383181995251,1.3802423474241379,-1.0321482343194932,0.43999464431451918,-0.70270858222277577,0.24565194797608866,0.6066812910391628,1.0990098383232183,-0.92970533269700895,-0.95668807070340145,0.43404622015189831,1.0921370772642187,0.32054871797423401,0.55845530669721777,1.0088420129659414,1.4109984928467565,2.1190679338393874,0.2945913749437743,-0.26771397575734113,0.43389080957268883,0.72140103100115427,-0.03644126487167107,2.1791683147993224,-0.49128227764319815,-2.1551724689719731,-0.025099378189682789,0.18899188056839603,0.35058336887537905,-0.5482864603212384,0.90423561098788652,1.5509794477886993,0.31275056116482375,-0.64250825534391609,-0.1787333681555934,1.4316791528274764,-0.54948552126336647,0.85149934497263624,-0.91656401549316113,0.53032685677154379,2.2979292107811764,0.86124602152039709,0.58376442326840883,0.15111738001107497,0.34127385637107899,0.43551620110832823,0.71020383001951926,0.48468645506692737,-0.61999351216827325,0.074907348155526743,-1.2125758084793243,0.32514079557871567,-2.2954694215694493,0.87983752879788224,-2.1339781518676957,-1.9031155875912218,-1.2181185748187571,-0.081701619075682963,-0.26722785036580254,0.7286998011289002,-1.7304420114638468,0.00028092901016590015,0.64753441278318147,-0.94639750552447321,0.018481649516637978,0.91983233530385877,-0.79759244979589961,-0.85799621655303449,0.22722450377991821,-1.1180035855032078,0.16952023401627828,-1.5677932542764133,0.23339180222012212,-0.21004289100628232,1.6868092501944933,-0.18859450596352736,1.5443888109631663,-0.20663724486570095,-0.5732755693796211,-0.10281011856804416,-0.75893057290336452,-0.49766999736664758,0.83353776772938515,-0.58040877236214183,-0.95605124747323789,0.61971826496963267,0.63646022037487215,-0.066989504105674877,-0.40905300426449864,3.6535078249142279,0.057900022061903408,-0.15100006505514313,0.017010058337592591,0.34833596523574079,-0.040114779015997408,1.1496327433636471,1.0331903337284032,-0.73133095027756867,-0.52993950687530744,-2.2609936990359385,-0.93282132839107557,-0.058844742169751336,1.2976772198073006,-1.0805520860949926,-0.32766511773966095,1.0880476474686271,0.41497778999753449,-0.48945449530036761,1.4527740974065855,0.59831808138710896,3.226733773113458,-0.98173247561992072,-0.31279280644037016,0.29037463997715252,-1.3130459879981886,1.5311461881207855,-0.16693117317509809,-0.6768877169091283,0.3302709747131381,0.21405489299105865,-0.65459781658501492,-0.27302572039011291,-1.7170408876662386,-0.80493707533984782,-1.3765441136981433,-0.73004756111813252,-0.92950366874756718,0.65251054174083045,0.72464761110768006,-1.2028248115525468,1.6905279625298111,0.2938281014401759,0.73782821868969717,0.11771115429959236,-0.588518439440193,0.50335318128039064,1.6743085880576452,-1.0258243336300295,1.3616786865610322,-1.9285210014743985,-1.9998355597575062,-1.1148189076933053,1.4225506268339574,0.3518258750821997,-0.34064362905061707,1.1311138074816429,1.3111788782913483,1.0559668948150398,-0.48955596913411453,0.40901157433271473,1.0591220504882193,0.4493473887339875,-0.292525968292148,-1.6311801005137683,-0.95538211686559926,1.3182744078390802,-0.2688984756464084,-1.2997106489770425,0.25084766219544641,-0.25701187549220994,0.41113026076038584,-2.116653463720565,1.0377712011043034,-0.029880384289713686,-0.62396227011105099,-0.80269911524160154,-0.43379546793478152,-0.11127092681053836,-0.54732306933343955,0.6614396600882122,-0.46116489229932484,0.79809578418802007,-1.2466401474756443,0.26511889516963738,-0.24523289974628801,1.060416331095112,-0.81625844271200731,-1.4419558677736048,0.84394553151129292,-0.13347009017475642,-0.036814353454203017,0.15634174425961969,0.74951211776522597,0.33105167172647959,0.38542226327102519,0.19668357340855286,-0.22877847342236923,-1.1784463668968896,-0.2366513017507795,1.1735882969482327,-0.94202098952210456,0.020618775855260223,-0.39212968730454739,0.040354181128383175,-0.30831549594818508,-0.70983317635484633,-0.42862069490576016,0.085708219297578075,-0.086059267449863835,0.17603903692872222,-0.72275547350038305,-0.42357478322413167,-0.27284447554889402,1.7167515088182876,-2.242465683936202,-1.2240030716586094,-0.20511202516145918,-0.83514438889560361,-1.1986794708664124,0.36982266001091518,-0.90398171243179282,0.15922342394575334,1.6837958764234,0.48964824496551562,-0.83729641413522304,1.148424422633332,-1.5054839936317805,0.76490376102569968,-0.30728929890562695,-1.029000321736071,0.025900755170383271,-0.64916978606674325,0.619398656005134,-1.0741655882326548,0.59122857216727309,0.95902859716031363,1.3896324240667304,-1.8736238412635233,-0.68919157172052103,0.20023980619780737,-1.3195583651824436,-1.4116450209628877,0.41679856226427237,0.70933139805695478,0.97849766389618054,-1.8701299106528455,0.76934450347373529,1.0647979922941611,1.135324121620735,0.65255946621680716,1.4458756352025701,0.30994600653386611,-1.0159343102319036,-0.34203093095678894,0.44688988282337044,0.17042126768240257,-1.7583997090117729,0.15518759672035587,0.66289364331498402,-0.625784098442006,0.95808978559460067,0.34265949224477293,1.3794632585643116,1.5734899397763318,0.74488666060543596,0.9249665894336826,-1.7352123054830864,-1.4650685836658814,-0.37275713816019962,0.7362130756855263,0.2603197241518575,0.95371637817282995,1.013475577251215,1.20369727556493,-0.80225659998231602,0.74885545377120111,1.4920840563595108,-1.1715193803510375,0.75713896116352686,0.95940504155041662,-1.7574268726859008,-0.97854925768826473,1.0897608446818796,-0.4952176765011323,0.5146344603647397,-0.073370498203644219,1.258947714196627,0.94360309416681531,2.1745484429008637,0.38816739031406849,0.91945498593227648,-0.91252132122917251,-1.8736509608625733,0.37753447179724303,0.42721534968095387,1.7756227756508762,-0.46398577017545473,-0.81108561772488041,0.56435765693980511,-0.54847469154919382,0.31285057064848848,0.75664968954121703,-0.10596596692870532,-1.2505937683361688,-0.8910639193676122,-0.043745147647723727,-0.14259020656762134,0.23269691634463702,-0.94928210471775443,1.0666276436592907,0.083123048011590969,0.69310785622144644,1.2634993517592927,0.048031094705568815,-0.044928842053112657,1.7982414092838637,1.0775275095815837,-1.9108134513587078,0.84919314361860099,-1.4252468850527276,0.66835794841808271,-0.14114661769307238,1.0208758195508503,-1.2339486460919755,0.98326892313714276,-1.7009381994654733,0.62042299282515678,0.10068176289940002,1.3958984750357888,-0.48544579676354616,0.88013620864890285,-0.63745104526229501,0.0030388691305827343,0.73565687293431081,-0.011108274500126006,-1.1172310799234946,1.0566143948924316,1.4996032684504181,-0.5433088899000077,1.2976635962021277,-0.72542894243811629,-0.66446348588860982,-0.20613508644029327,-0.30775727882462844,1.0816553097799648,-1.2565832411006006,0.80678818945402742,-0.19198845250316013,-1.2825280794085252,-0.95319978691352725,0.09019520165223692,0.046937777201588232,-0.50912928425508175,1.2448516280647466,-0.26218946552568306,-2.3137172086763984,1.518340496277651,0.70151136442727613,1.3838957718305671,0.32289786864834286,-0.5719189271785583,0.086034029049200045,-0.49034331191410191,-0.87981762923146922,-0.025891869170256238,-0.79460530949395658,0.34339378763868766,1.5836149990194945,1.5010105038553139,1.4495356421994363,0.19243688320445795,0.37015766148043749,1.2187807763650746,1.3398216279760369,-1.6538245820787913,-1.1270858497913832,0.47555449134346961,1.1709699653807621,-1.0012734004626802,0.63208638704378906,-0.16674045085035183,-1.1948326735743713,0.5839099543796209,-0.24902415215863521,-1.5055523058868627,0.50279132338823795,0.4196908120344488,-1.0726303765523373,-0.3100502913013386,-1.4807828038715121,-0.33216894134605557,0.44636130402129803,-0.21402985542118105,0.69885403477455499,-0.092244296708250642,0.050952538514177068,-0.85201229948843205,-0.5380751501590203,-1.5051198772929406,0.71522129592494343,-2.4801647680120613,-0.7897155127236356,1.1008541766706086,0.36518253179615057,0.65154413401206146,0.026181992480408981,-0.70049690741416748,-1.0460386710196803,0.54827988898068536,0.19919430161306162,1.1828802695728797,0.65578093709476604,0.63100717545000817,0.6062295436654429,0.28719566195513563,0.61819983974397263,0.3742062029634301,-0.3561493111284843,1.1292574954733108,-1.4887175745331911,0.089308911971832827,-0.445341391107764,0.23377061749728537,1.4339477237177471,1.8875270507161825,-1.0981955514546433,1.2829943008608526,0.88394247875654863,-0.18027132587837558,-2.8985932877509364,-0.7705601822567939,-0.92343996588181554,0.22932383214793559,-0.19036153114355092,-1.1685005534600887,-2.1502920723764944,-0.25272002832925528,0.10022926484835742,0.9396367343194798,1.2870221630789971,-0.6775300205157303,1.9903122404195381,-0.94667722867968773,0.37928508787718679,-0.22652755488830278,0.81835112468511129,-0.71838251869357606,-0.021534916432048263,3.671284806223523,-1.356348061459844,0.9980896588821655,1.1365275160403274,-1.1730872374607229,-0.033808116118536846,1.6948625344402728,-1.3749157661824729,0.58935545895629504,1.4896679380980167,-0.34572720674566099,0.13536134214456499,1.3777293639840675,1.2737936781205219,0.23241724348081846,0.15695820947116296,-1.0751422751191926,-0.036848140588526042,-0.74869004640182835,-0.42289994344160436,-0.63511890461138576,1.7927926739133662,-1.4050861699585637,0.6876194209725206,-0.90132506379999022,0.63768036705813314,-0.25755828446090406,-0.9019213139499257,0.63215247721235923,1.4364169537674325,-0.28471015720887116,0.2175262260962452,0.00059831621958040344,-0.5462582865758191,0.052860235411303129,-0.22684609488264965,0.15554827922522924,0.39309915420827291,2.0920665538049468,1.9044731726527719,1.9844751882028644,-1.64349739902551,-0.52002346476928329,1.3451352512459209,-0.69251560824851188,0.0011148710911208773,0.94732643325051136,0.0017906352476114091,0.21022174327851201,0.56182710942811021,-1.7447289425482142,0.43431694432145568,1.0276633512834983,-0.23579617794554175,1.5083584835860286,0.55120470191281279,-0.60209697806710805,-1.0779313221164517,0.46983305132066311,0.6910108894570226,-0.54412333748753694
