-0.13112384961001991,1.246111923373203,-1.2297032739402238,0.26790585066309897,0.39136224423127897,0.59486621088195601,0.26951213907209737,1.7282618708275486,-0.7858714634091899,-2.2261775212532586,-0.89394080229908413,-0.75516234853612541,-1.7934041218941423,-0.92881782545892411,-0.97918552336558085,-1.9096891722991993,0.96231309353835548,-0.7593491699721916,2.0480506967369969,0.40311196019195694,0.47966534358755825,-0.90615686564529918,0.81470083629468337,-0.57516648866465103,0.5831221753940945,0.89072372912775744,0.37952999964432427,0.64200254004945179,1.7671977608426856,-0.49968851616102578,1.4334771239109962,-0.6059815422078062,-0.33015632299540559,0.23033218794999724,-0.70473931027948011,0.77995712436531872,0.0011929979791016967,1.6870748680177383,-2.0508973090817935,-1.065596564719568,1.1730489174266496,1.466317020962723,-0.51326009063217848,0.30054132598996258,-0.97924523265307573,1.0875106391457587,1.7788847673204933,-2.3257243223364603,-0.19971185483556439,-0.58009230409460544,-1.1377621215315445,-0.29029662311544513,-0.056307095254247763,0.7671226867026727,-0.55304723361573782,-0.11334490773835934,-0.049811692223545569,0.7412451335926874,0.26676116487897589,0.44183015525741626,-0.2830743585186698,0.25183620245331406,1.0890539599307951,0.95763666678928638,-0.12401818565284869,0.61310535366246455,0.095323731452551269,1.5966609092918187,1.4014458576589015,0.16987252599489502,0.060992048073026162,3.4366215692531736,1.2444951223176486,-1.5331193907838354,-0.5665723823871005,-0.096699310345970541,-1.0726437937320683,-0.13637776308451532,-0.57410515857550148,-1.3965489840504943,-1.10296318319085,1.6180369198866797,0.33934485290211258,-0.32712817889758133,-0.18678016707933978,0.97397593405903782,-0.091644878535993915,-0.24895312841942763,-0.34082514712798856,0.54426301862754922,0.16941030472493596,-0.39831260765592408,-2.2909666897519871,0.55288486518959568,-1.5315061514829456,0.57547441385449027,-0.48375536624506188,0.016429456632669252,-0.76082291705960703,1.0835837847177301,-0.57807962955421699,1.2314546838190823,0.39254761395465604,-0.18930813563938326,-0.35667355005547857,-0.78005480124704651,0.068303921453487987,0.49688973366280298,0.57058465379574497,0.3765337591110286,2.2158786351808235,-0.8632648183136149,-0.50384162208130268,0.33470095469735939,-0.6789676454731457,0.16815581576754815,0.07371948264461238,1.1126907871128249,0.71088204307424585,1.4564005877662716,1.0016768197460084,0.058882278596952053,0.3679538795597142,0.02712632587794362,0.052766052273801795,-0.63391971901419186,0.87756987736929726,0.48812561941101612,-0.37620061535212246,0.23499894942963701,1.1369509955787986,1.3269833377672764,-0.92826794335377605,1.669086058335542,-0.57774626515083105,-0.19359491689600192,-0.37131343463052235,-0.23298517486599182,-0.54882680756615387,0.89857823311201979,0.76301084138028774,-2.4289388483708709,0.59774822438067565,-0.18516779163211133,-1.2021847156031258,0.17955327029617915,-2.8110856234350754,-0.30050522636177851,-0.62037969040191343,0.95264089257942286,-0.57933349091453956,0.19210728156586829,1.1026135782826736,1.7954665583981646,0.60784989668744815,-1.4967440904291054,0.10275634040392262,-1.7120167330973726,-1.2759522393400595,-0.82093779382114362,1.3537071170504364,0.65636998549991132,-0.41483160428553095,-1.7811480441070231,-1.2193348485341013,1.5029036249574781,0.49309767179386632,-0.41069324307186489,2.0071637783570058,-0.014465329912138033,-0.49671138024732647,-1.9446624737469473,0.21473935627103871,1.4139507848236572,-0.95908879222686005,0.082368114350056337,-0.46722857835587034,0.79497951384604215,0.78315370098435089,-0.27231025635031364,-1.0380150159769175,-0.0058065603736047492,0.11368003792373173,-0.47260210793131996,0.62150567838072124,1.3020190101958475,-0.30511391661295229,-0.23620699788962382,0.62540481414344862,0.0072652328504849845,-0.56091029648007196,1.3345821676792069,0.36499052825798106,0.48701387151287656,0.36894594894475463,-2.517883494544698,1.6664626605058852,-0.48273264330899868,0.048377728011610631,0.40927609968972989,-0.68246070778594703,-0.31175678157631981,1.3474073782463489,0.094524364595631405,-0.95289223108737031,0.74181577163808776,-1.4378829690903197,-0.91768352815683629,-0.18104675189906216,-0.92744868936475933,0.047404075958940993,2.2732367853238236,-0.4340247310957922,1.2470470565182807,2.1593397036510185,0.91888241938554627,2.0640233990359187,1.381724042463834,0.36160244261149438,-0.0047251900832400917,0.98248380050887807,-0.62370368424107903,0.30868420669760527,-0.71753816185257813,-0.4050077640456588,0.32882042262479932,0.10175842574956648,-0.21458220289287006,0.015698489286852656,2.6284926277926064,0.98708526306370226,-1.8906390297729727,0.78562112316926391,0.71436163410811226,0.12732911379553732,0.73234540729044906,0.51747049332953754,-0.017756319973872739,1.3651199300731711,-0.41937675519683659,-0.09753769348772616,-1.0803372512166776,-1.0573712058416826,-0.74623163588453945,-1.0250190741077159,-0.054646531206835998,0.40964246890748457,-0.32411795430974571,1.4151922106133348,1.8337114956524831,-1.8470199756249679,-0.25244865340591804,-0.49212564476052145,-0.99540310636064078,0.58965909316415599,0.64635447199867202,0.67485429225066873,-0.6469278270446277,-2.1958611898110179,-0.24839933999800023,0.13216750816559539,-0.13867599875551484,0.65831707865363964,-0.57919552605701519,0.76124457983608973,-0.11416732308680583,-0.6775224301440963,0.034625176222621908,1.3334380313708558,0.59699825660401173,0.59897573733144727,-0.28338734341081845,-0.15453453618095161,0.023324642828327476,-0.55626074576945572,0.095746540773203867,-0.11118296849598347,-1.300075140141882,-1.1003086365960748,-1.1153623236708581,0.53807248491413939,-0.74572558194709571,-0.38622624717955184,-1.7193478560511857,-0.50660950357493284,-0.66310711946561329,0.06759436253731034,-1.8037495042283609,0.38699136521360172,-1.2864399831039843,0.83234471213954397,-0.28613977302004856,0.33843904098862587,-0.1824816701285476,0.72034013611378356,0.023219685843060497,-1.403722301188417,0.052791340604733381,-1.8713395364552232,0.098738834452092389,-0.16429925301719431,-0.27460301436023277,1.2638373671971275,1.4454174899037471,0.49576088716435024,1.5729154600908763,0.93586656546308911,2.0945450072423855,-0.38634105404370556,0.45174407755286972,-0.74493563346433167,1.0693564502009598,1.1175988014010039,0.5802585957683043,0.1568255795241362,0.082418963666363657,0.82856328388277278,0.1180962702994455,-0.12994494722573205,-0.38931594968923028,0.61050794936421082,-1.5096686225969145,-1.9276418545649259,1.0657788496240177,0.74207947215685699,-0.17566401887986555,0.78831137250319883,1.936994652392757,-0.20925790473794592,0.37365421105939856,0.20774518278698878,-1.2681466823371481,0.44503282203104855,-0.18519297388999176,0.32830344259913768,0.31107461054299845,-0.20296047998925298,-1.1034187446213457,-0.63020599265489552,0.51155844338244494,0.37737467421775961,-1.7859682160860595,-1.1314762136420737,-1.988701703989769,-2.3737803545044849,-0.92727440121494886,0.75792953876267743,-0.054999854348408504,-0.52283009446302509,0.015882182049083642,2.2056709883568573,-0.92104605232706949,0.14628761997043011,0.29926853784169777,-0.83404719787736947,-0.69913665360980604,1.0879293184777223,1.732423981017136,-0.34033322781551634,-0.80500178837279401,-1.0127942405190822,0.24876990114691019,0.35440837582469537,-0.48320569387477541,1.319745747947211,0.2186931997519857,-0.79271047136631456,0.8913662989757043,-0.16263904742886767,0.56341397577307195,-0.10950199054106187,0.27869359378137953,-0.0096776683677884303,-0.65382542402374377,-0.92128598858255262,1.7940186397015796,0.33424661174560993,-1.9419989609228108,0.42291923316933533,-1.1189407012397217,-0.30904562174418831,1.0698168441445084,0.073653628745725369,1.7719606017317193,1.3864655960446597,-0.25010509659179203,-0.62258244705833665,0.39565306379067727,-0.52162177967882917,-2.1223461744099601,-0.792003771421118,0.5127003214614223,-0.60004641461429797,-0.24674779441628228,-0.35365192549978997,-1.0871702966030605,-0.01494003419203496,-1.5372211815899162,-0.8110673697818146,-0.61192872839991774,-1.3954435222346084,-1.5030297162744988,0.83139528992455325,-2.4510913883438157,-0.16262313273357992,-1.5231748021187166,-1.2491633873583365,-0.30079961508232789,-0.47389010242263546,-1.7316272980170186,0.24401768541175578,2.3244986303349466,0.38234658887346284,-0.71875916977165621,-0.4114527811612006,0.12690568385007922,-0.20236021529355647,0.20660665213197515,0.30136082870133651,1.1617189616895882,0.84780117943829736,-0.56365647298784294,1.5908389167069137,-0.25484953108444774,-0.81995081180501883,-0.50379951196695616,0.31820061810132644,-0.17210953088221487,0.40026061800968693,0.67353875892166737,-1.7598881656165397,-0.92719173925841636,0.5602110029082995,-0.20643725533223203,-0.51147039958740648,-2.0636688370454785,0.62890186936389181,0.64623613607991837,0.62484125615355957,-0.19093155667716941,0.45977960207055435,-1.5784893963453608,-0.60956743516221101,-1.1983316056915729,1.0858298972465603,-1.1194542293881096,0.71279954435877924,2.2951652141711243,0.22059884736835847,0.42644456347119736,1.8541365340817391,0.4764862352118962,-0.59661168902961559,-1.2469346504608458,0.18324078878109559,-1.3097453622828983,0.74687572037621086,-0.53240955245299815,1.8195030342748499,1.6645920127856049,-0.14885937531811497,0.13747650063437222,1.3001427223290776,1.4379043331094934,0.22427389617907093,0.27761609048690228,-0.17038962286005133,1.2594020861287345,1.6902294344457054,0.034126090022596769,-1.6533238925554079,-1.4606637878979252,2.0449710756437227,-0.79542640506093176,-0.3516736986443047,-0.53178311516466903,0.18128003272054796,1.1502581127370186,-0.33762841635234053,-0.16156001184501659,0.10514555263751947,0.1833764756863317,-0.33492124442889992,-2.1623212019749127,0.38310031642937858,0.57728527604461466,-0.9973697043082741,-1.1685550774072466,-1.5060709371054506,-1.0677527371786171,-0.4428593028595314,1.0812083232110674,-1.2093921683388653,-0.32108436378288169,-0.050931513712823603,-2.721675120220695,-0.64330529752992593,0.17588677715628656,0.50261817917690266,-0.56373409920950357
1.213984366220459,-0.98381538288823178,-0.55108234032103542,-0.70027518123823107,1.3211913239987219,-1.5674963734521328,-0.43139682020633274,-0.5863276012291756,0.67304246724995331,0.24530929317433284,-0.55150394877398856,0.024619543756773121,-0.63168782680254354,-0.68114831245607332,-0.60650542807705554,-0.57197081764741031,1.2106139160184923,0.58725152802324543,-0.26799691889470445,0.26884946197272364,2.1628555306895203,-1.3487632060299248,-0.32036840000078931,-0.89554329118572129,-0.59711001827028953,-0.2318224032089389,-0.037876303450797309,2.1887715237785539,-0.57742852422843882,-0.8966349972107146,0.03802044094326338,1.1524875202799916,0.80394067409411485,-0.34563104948979084,0.33436493610863394,0.64663686183411562,-1.4122975216263003,0.92145140118100333,-0.055721192340141459,-0.79907808097819999,0.95837223884790779,0.61933040732738498,0.15544396501332078,-0.89194378948359587,-0.15524394761038005,-0.4477161481443041,0.48185712352688093,-0.27224462755220197,0.1933531518128121,0.38919995877157654,0.19287668331729452,0.94941138927234592,-0.090464194644015991,-0.43506998110875711,0.66717861979788928,0.033188421716553729,-0.583158423994664,-0.86403432256293711,-0.58672645275229551,2.2040274312557075,-0.62048876860273383,-0.59439792635014399,2.6732545579791287,-1.3200453378563108,0.94372458485469046,-0.30614511768633818,-1.1130303364248701,0.14637068612598345,-0.63983002436778247,1.3657181858306207,-0.31797450270750865,1.4884959238702891,0.56379522905182533,0.46917660997736477,-0.5385631994411707,-1.4505958265225578,1.196099957557353,0.707245341900963,-0.38214310797543488,0.20464376873673054,-0.29432596313961856,-1.0753020590660964,0.092063325548952288,1.2998930547180514,-0.65480255476358262,-0.77038597534047848,1.249163334910212,2.105131980986545,0.081268205206636746,-1.3259477174310201,-0.60373239291691749,-1.639666911387756,-0.89023429234714291,-0.85728917831379992,2.0552487832474058,-0.011342039338170299,-2.008976525007188,0.31503483074346228,-1.0549935803948058,0.38301273202081915,0.0081854111706692167,0.44925565723379801,-0.14586344452367686,-0.50002980495805915,0.62939495156058545,-0.58971884843007538,0.70881054135273769,1.4074967222664738,-0.66198369214395114,-0.81181923278122281,0.1658926114081205,-0.017995781270501963,-0.35317369215648475,-0.87155952470234943,0.79782618314115505,-0.75210074429933715,-0.085079858129293348,0.58751649968634423,1.4886584727597945,1.3711944374249865,0.86934653242220961,0.46477363274826256,-0.16740165813340976,0.89922163998951954,1.9927080353123299,-0.82622710156951062,-0.88555297333969718,0.11597178792292964,0.9005217397296803,0.24481967285564335,0.96511723907218028,-1.5711822411541092,0.0028792004860176117,1.0194945774953272,-1.23936790858331,1.4243925391569519,0.084159444507978257,0.29205335712276026,-1.1911356247927756,-0.68222656343567967,0.40376096138147416,1.3473742875572863,0.50576004669173824,0.26802279262571527,-1.0731727490965237,0.60077642734055414,-0.39568386609748585,0.56610757599648509,1.048881510437166,-0.92969492519723351,-1.2218577385633733,-0.30711652021470676,-1.0341803912533079,-0.4828083886561132,0.87340144278678833,0.30363389680316893,1.0690100495767887,-0.42461669467094398,1.1575961669705053,0.34229213771012779,0.7750985933958735,-1.7815195563970607,-1.0959317378894902,-0.98638035465446661,-0.27744712364728447,1.4852501756886531,-0.47914421370686411,0.9815350145745666,2.6069700891238394,1.2219396236946742,-0.26532398666316714,-1.4725385329527296,0.10595336875312678,1.2609422868232181,-0.24643971048518482,0.59413226558797683,-0.14060755430444635,1.1481445625923774,0.63854596129768038,0.72760008412090937,0.23706493945807727,0.56675028880742906,-0.60751956312839495,0.65663011758568501,-2.8121218394065761,-0.040247039533064057,-0.12057301966215687,-0.4301128671006087,0.40452698774134627,-0.22851866713570168,0.87545393984914188,-0.098266736928649998,-0.42577614252620255,-0.1257058170672691,0.070306280964726423,-0.14736112598614776,-1.3634418854282635,0.13933977907441517,0.16281178503672214,-0.060826221539471398,-1.5805189157540902,-0.26863599073943695,0.91449250359643863,-2.8814581829033545,1.3572011390592862,-1.3354035279428305,1.0121442622588428,0.46042774564110045,-0.084673472338659392,-1.2331271327377962,-0.66735771216651263,-0.26758671125303879,-0.076012004288389279,0.18402915590291047,0.94573344586210184,1.0842168475195875,-0.1050303706364442,-1.1295745813643214,-0.72175214301789337,0.98895188633516418,0.73162047976831956,-1.4170473679789319,-1.1918821327576148,-1.2158997185582705,-0.10323010361616701,0.083820949779259649,-0.15615424904171302,-0.42502563788193809,-0.40707915707035541,-0.90646243019613426,0.52642073473013085,2.5915903927866899,0.4279255688340326,0.1043813328797165,0.077217253119255952,-0.41406609075839318,0.54748010438142192,0.33652535461829192,1.5784245801195314,-1.6600883889028493,2.2750727850138452,-1.0413238377562464,0.011790340307752769,0.21727314862280039,0.75911751581371911,0.80214233492826237,0.57710961564966023,-1.7381146859350405,1.1479400431412417,-1.2598337429903372,1.3301761731028321,0.17535791569020923,1.8929136840796295,-0.16429850853484396,0.17465827941025641,-0.65770315934379209,-2.1603010408791459,1.9180821210714729,0.89577159402879736,-0.043635616293187941,0.33573883820684935,-0.60398437446648656,-0.55183065368058359,-1.3119002101273309,0.92400864517541548,-0.45495802781861772,-0.79397204526731424,0.18580351917982366,1.1296806624117508,-0.58624127587637576,-2.0030847556344944,-0.92777306125828285,2.0478723876176068,-1.597473777830952,-1.8579979368479032,-1.2336300818021322,-1.1454267928430242,0.31168218625122768,-0.72899503328729787,-0.13241576153854717,-0.67481135638281964,0.35537041580263157,-1.8352598524373944,-0.61203806595106836,0.011329316934150742,-1.9024162667587017,0.84387845065491729,0.45882483466534496,1.8210333828473935,0.45261050491352711,-0.45494573734314214,1.0467822905964759,-1.8396774187970071,2.4607310413202783,-0.45599018470979885,-1.8392333590304233,-0.37785724644174878,-0.24893053373402979,-2.4572215824780894,-0.66309728581239846,1.3475921657002745,0.67875083999051022,0.19096951315412766,-0.59810050326454245,0.50123427792256081,-0.4506112167629906,2.524888715026421,0.48688411516458097,-1.0185861788183015,0.1974216677592846,-1.4177362764729446,-0.61224618871897318,0.091396190835942873,-0.79066040902796797,-0.50107773488069318,0.7956534022817372,0.59476348631228348,0.47428467176126882,1.9101072120139799,0.219633385236741,-0.068425044150506431,-0.11794910910855064,0.49481205790175298,-1.5515655184703456,-0.16152615146579266,-0.012059456469953579,0.78898075699360137,0.71388752169894287,-0.055373492522188893,0.065205941145740479,-0.71842891418029298,1.4526459237278693,0.56762817382342168,-1.9267813011520771,-0.68052024031933389,0.34666555247008596,2.672906506526628,1.3867162451218658,-0.82823128323960704,-1.6980774489207997,-1.2383465127945945,1.424586342567594,-1.8374322064129345,-1.017598122039965,-1.4524206231283112,-0.38232693416959751,0.27094033119868793,1.1160769946466496,-2.5190231292578922,0.91109145807055714,0.80449196365721254,0.54392769904485705,1.2821735418802755,0.14503275006354865,-0.0031412752732288933,0.2477008337858782,-1.8355742351925131,1.1318575371351196,-0.21122934818747144,-0.73155059739370742,1.2597465097223965,-0.87060068244794342,0.57507161047366639,-0.11663005867355135,-2.3022574095896036,-0.096954937303530858,0.12264652606149404,-1.4515134550468545,0.40430838594875385,-0.48688015656183148,0.14073074403653124,1.3366159867910883,0.10584304466215691,-1.0385661624126292,0.044646640151427483,-1.0635804348817699,-0.86913100813201227,0.50108203141558705,-0.99130410660948365,0.45503580425933249,-0.78384647442645106,0.16269540031566607,0.66686590577137883,-0.51490448146303325,-0.13771112954416737,-1.8102826813202491,1.0966266499178363,1.3081906453510226,-0.012500037786871334,-0.12004225582583578,0.56466493439144205,-0.26648291662442464,0.075653804392369225,0.62841400334328767,-0.47975754480076527,-0.053649669261650171,-0.029159055093946559,0.3982841196412884,-0.62817571035535347,-1.1093733382134945,-0.28119748352081436,-1.1583058479584083,-0.48179453730454463,-1.7100462012718047,0.59424910145785281,-0.20026143348255732,-0.15099075470419621,0.14545657383999289,-1.2821274956510595,0.30883055679887533,-0.5518464522121771,0.40426759050004424,0.1186498454653831,0.68243490423342501,1.2122683597446278,1.4883400755565035,-0.016916932543685429,0.42527390035043466,-0.97595296070690452,-1.3410649066503857,0.60096697813094879,-0.30404850061878214,1.0074876805443449,-0.49997952858460087,0.033293571609980352,-0.2759058058810776,-0.13398877969808679,0.92538183390035644,0.84630320310131368,-0.80605882860917188,-1.022425703302571,-0.16360600231527214,2.0160347249027275,-0.11749807331678415,-0.10057668706824388,0.47528081079310491,0.82669086632321764,0.41549438427166535,-0.48427218530511296,-0.61250807709473265,-0.76278301156128248,-0.8919167645610484,-0.87152586827854273,0.73624544781899237,0.65817281301110997,-0.33435920174459438,-0.88620233423278938,0.044065680554894307,0.58219494683293516,-0.15019400579633851,0.25864937593775134,0.74224158458825751,0.0072960806478213833,-0.51748023548027233,0.10793943113029647,0.25799666222030798,0.25845470051703301,-0.1375477817630808,0.40112756151028955,-0.45682768945840102,1.5952545876679987,0.18727813270137675,1.2451232672542343,-0.080122446590484717,-0.52244776245871771,-0.51827757926777529,-0.87867412837869308,-1.1134162361310798,-0.1702070951270501,-0.86709708985778811,1.0056176688652692,-2.2094363063564444,-1.6403014999034964,0.19502830496027379,0.5381131739666859,-1.2905456773963746,1.1707200792317967,-1.286676722361398,0.10184920889517857,-1.255858965156065,-0.41956499340301484,-0.77293207257334118,1.0831218377858411,1.3851825064068164,0.75265170359345734,0.27146464283420135,0.8292651951153327,0.21878339976191277,-0.71148940162591678,-0.27192540799154652,-2.2504905379155833,0.74033962709586021,0.61106707825287465,-1.369234573829081,0.18737533271198309,-0.44801907172187833,-0.24280100033899471,1.247535074465993,0.94051606318650116,-1.4472873376123878
1.4252380083425626,1.7439459095731358,0.8965912491054181,-0.3856041271806348,1.7128462906429849,0.24632003598533384,-0.31738635979952068,1.8789859366753208,0.64094128624321112,-0.14936047772986977,-0.35975107639901682,-2.3016979931505057,-0.94737455732156628,1.0465411671231102,0.68967723911817946,0.55454685216416022,1.0287230747709355,0.89650527740037456,1.2115750068092916,-0.36907529865623645,-0.1253208520263443,-0.30782400469422905,1.3052752210149234,0.7391665009250904,-0.54039993171380207,-0.12383453341606182,-0.36759746089096373,-2.739084564798933,1.0224681722609716,-0.14650644706753058,0.39797916306313447,2.1146740359096872,0.78555642819156235,1.6900970596917928,-0.71108809919413196,-1.5910385274252163,-1.3399619523062472,-0.46897798772854693,0.051160688773249731,-0.65603376572791183,1.022773578653724,-1.0750048142589701,1.5763880018114871,-0.7590791605223004,1.8515706026362184,-0.4741512458496383,1.1244367605823402,0.31041149248136535,0.92265930324386225,-0.62739976481311677,0.1637245792729336,-0.99818996738918198,-0.11120668930818901,-0.13146113998359327,0.24632201287800368,-0.12308679504441,-0.36700384511349465,-0.40238236461165799,0.13396114561704595,-0.64647434561366879,-2.1528830954330442,0.12162283001079968,0.52842452404623552,1.3848500004174582,-0.46673456668812624,-1.5734360574868973,0.83860341567977292,0.43140472414789655,1.6212794615967683,0.33183179197289786,-0.094002587516800601,-0.069367422505296386,1.7726760220202202,1.8167283102224472,0.61999748940048027,-1.0512240806056041,0.88576415859381519,0.23104701997573496,-1.351795937319175,-1.323981127392281,-0.49948192311049094,0.21131739094172725,2.8304649316777351,-0.51993304377335703,-1.3543972403450799,0.47628650385244303,0.86979313924936563,0.21303470264886562,-0.60662149526013098,2.1021345570620884,-0.57102910862154843,0.13937564416503356,-1.3726770835874411,1.8307599374460133,-1.3091386586490295,0.67456620113303667,-0.66862199735100436,-1.0634784732090339,0.12042671679941819,0.22187347381444034,1.3139416640567327,-0.70830750782584018,1.41678712849472,-0.23352045859294321,-0.39925896023601298,-0.17574043728613239,0.23047941087399312,-0.79312473824198615,-2.0372606451555835,1.6210516481275783,-0.34031773661027209,-0.53128891836656078,1.1526483927489688,0.78419481700907312,-0.78448210745149827,-0.21875470696774491,0.66513896829589036,-2.0372489391114406,0.093928865153859398,0.054283136054077308,-0.15749253487200296,0.82818588481195643,-0.53615457260089383,-0.052540832595769173,0.043229108557196874,-1.0653522926634154,1.1910178475731807,-0.42452110653807629,0.76484343772593799,0.38631419356253699,-0.66078425812088026,1.411070043782688,-0.21343117904398726,-0.05403021424685106,-1.0058660227207437,1.7536875616173264,-0.097047475118928486,1.4573220996192644,-0.49929558949541131,1.5385342428286857,0.74096155760702498,-1.2414626887471225,0.3589409604793376,-0.55068861060860597,-0.25855794398172516,2.1622965449118401,0.1256679544284813,0.99062333695250593,0.94099392760605449,-2.1280493462240448,-1.097894811023542,0.75730603715353739,-0.85081114863821949,0.15122848789482315,1.3581284647954541,-2.0090612063707587,0.38908083242758817,-0.52102187518224985,1.5819241387512801,0.28504961655135858,-1.0046408190745675,-0.97333547127549491,-1.5800787523815569,-0.12794336766999562,0.82402158475782472,-0.38842276058606184,1.1636727863496514,1.086395205319808,0.30238025676828012,0.50831474215249906,1.0661338498321207,-0.26166719767705104,-0.18744476904582655,0.61120146156768063,-0.25342455584424473,-0.020251999965071484,-0.32453348674455429,-1.1599067835567307,0.98767550734962972,-2.0770605060713629,1.3503516993648899,-0.44163182046881427,-1.415451967198724,-0.24857367843556602,-0.76520909655988012,-1.1878910037848776,-0.9319209124345762,0.03232012984219014,1.2945289282084653,-0.28463922030630939,0.64489747103137629,-1.4429825668173695,2.3670794472135426,-0.16796491117909018,0.38479790355205157,2.134289500014201,-0.73510774766263376,0.8273164205912017,-0.41059175085102551,-0.60323398937341499,0.6594850608098406,-0.96613588318518484,-0.61828374276023246,0.68223998016330478,1.7010755585272606,0.28313968069398959,0.34490295222593736,-0.26486103474318601,-1.5440248071319784,1.5148809723211756,-0.074958519496678075,0.60053530070809702,0.80944863807938849,-0.65035459747626079,-0.094904286690107684,-0.78258430164999226,-1.23853946877131,0.063369767295130455,-1.2711484718649828,1.5028384775547767,1.4503983173184518,-0.8319717544102051,-0.78804488451064003,0.28525302130785635,-1.0800989811209019,-0.33297589585860199,-0.088403001890446239,1.0133063251315999,-0.32566614128981364,-1.8749455142934544,1.0965629674143558,-0.4076807555882373,-0.64510057983600289,0.66368102591487388,-0.99133028189109051,0.061283988393818184,1.0329359501279924,-0.81515604374232509,1.3151583641406077,0.71334378855955005,-0.39361409607697301,0.44183418136451286,1.0641590680960447,-0.14036856654958002,0.5871781025026227,0.68873793023646057,-1.1378644262139375,1.8641776533168068,-0.77836688563213297,0.68157218476856329,0.80333074091403811,-0.52312737114821994,-0.14937299442525315,1.5726795518857148,-0.283968827699217,-0.86223327469473021,-0.66765199925167307,1.037439421548543,-0.56729194125891902,0.36941013104244907,0.014116438706075355,-0.25505637921460739,-1.1648085399780317,-0.16902693637677407,0.11740291817084625,-0.28668903259636308,0.55977739590722431,1.1485144448721953,0.82728965727532655,-0.44788354137388969,0.72449404079689905,-2.5330597804519361,-1.3682414452718685,-0.14923888720769149,1.236499286846994,-0.19073378364591687,0.27018703102102076,-0.31473496615179719,-0.70880489413194436,-0.92444570964944484,-0.60872278199968388,1.2734249719312829,1.5398489563136122,0.53394254633175586,-0.97112969486595047,0.67021325813915722,3.1443272786653838,-0.84829331052865653,0.035869268173072441,0.024764835316017433,1.5028911632528332,-0.53823123563042652,1.1676294218670733,-1.263249399669867,-2.1604645995534422,-0.37232726271297772,1.6872484988083656,0.80711092943248119,-0.29141925980659816,1.0455816303714567,0.73067335267128852,1.6894008915004337,1.1238132148406053,-2.1316030739770082,0.42319463540197322,-1.1467852629169915,-0.86136912456073744,1.3186677009602361,0.64487542945277065,0.104988518628842,0.68137685565824968,-1.5196374232681373,2.944222681420857,-0.36130138643422882,-0.37166155524031347,-1.1589541598448267,-1.2366374219061087,0.24144825954942883,-0.16483154181424753,-0.25571879260223901,0.63417610159790361,0.023554059028605075,-1.0416773104643198,-0.26243385871075064,1.4410025563885827,-0.97339896034149875,-0.85104445213650537,0.98429250864272511,-1.0177237125068135,0.060997106950905683,1.1577194388410592,-0.17060297736227323,-0.71286572964316552,0.3403319161498034,1.4296757519860483,1.1693161860996826,-0.61778626405920922,0.13864922505943758,-1.3142029425248998,-0.31619284814468324,-1.6037650598809914,-0.64756297273708197,2.4123847310177502,-1.2376373866843735,1.2039191581335744,0.8441626985396421,-0.40232518399240685,0.68215025232364179,-1.5453916392796285,-0.13492967355913105,0.23209761739101742,-0.32456970692842374,-0.6637819079488485,1.4270006177308099,1.7346331574809473,0.51613296872852654,0.84363107209078392,0.16419798436886585,0.63061906057303974,1.1251115798698816,0.64877961648867188,0.70028138987794086,0.9240735264953378,0.97666506238264572,0.12734259845218029,0.76813359826902949,-0.048214538387211833,0.77202384474880303,-0.96668039658468297,-0.3796819023118046,-0.0023138860669458358,-0.14431498438146953,-0.96349250252665664,0.69374806097543951,0.050339474685882783,-0.20587342428713229,-1.2151224752958969,0.17991129797185454,-0.14625666828049017,1.6701050010490495,-0.2246133492091488,-0.75488401538138805,-0.26768583487489123,-1.0107007058762942,-0.73919649894177319,1.5704166066210317,-0.49263839204042675,-0.5912095733093774,-0.7951569723584293,0.67386086138512558,0.29709380841038691,0.18944139418260786,1.2439399436921916,-0.3088479075985846,-0.30914467887469355,-2.3543823207262808,1.1217730669018604,0.50768174219913265,0.79155466509000849,-0.12480904585560156,-0.12355369991507684,1.2198658483729248,-1.1908174004245848,-0.57457278538821677,0.65538725776794637,0.062489837696305485,-0.8792662680384461,0.79898065975212329,1.2029298298726441,-2.8127469891712362,0.21838909403472487,-0.28722298791247031,-0.13294843074452672,1.0420079221295258,-0.94040517223633091,1.6971733865364707,-1.9835941018143708,1.1486055332200791,-0.59293729484668323,0.84936145520316131,0.81254490307471861,0.60665963424761105,-0.061527787282457599,0.24055797321941663,1.5383167909472821,-1.4435885833379296,-0.16552925551053294,-1.3512435526275914,2.6087394165534756,1.2531249828042417,0.86369596401769388,-1.8273614216851191,1.4678024211642411,0.9235737976559858,0.85047416853444324,-1.767807906907565,0.32160296861894716,-0.31056590588408828,0.34453452705921495,1.0139059400000621,-0.80822128447549957,-3.2040655080244398,0.20189199028637539,-0.47970150066908174,-0.58354788694680593,-1.379358299848173,-0.94191168370695788,-0.66435877324975035,-2.1861403489037046,-0.28171265115884325,3.0195146919230926,-0.0025395837925426693,-0.29661236829320214,1.9302572790049315,-0.13784232462697196,-0.15008266542553464,-0.83195717804168112,-0.3176458041508099,1.4928207483083409,0.76518404339978296,0.15774524676320514,0.90847263978004933,1.2899841608124445,-0.80144924946351637,-2.4035235884663075,1.7014153461390746,1.2881224828664617,-0.016936764853586306,-0.56758813984567713,-0.87092554531358579,-0.23444485104751733,-0.20296019807656718,0.46817416015128577,0.68900504110184868,0.72032365673757359,-1.376031493886936,0.45524346542820993,1.4968682116611798,0.48600328975771306,-1.0833483573302505,0.29905831005410516,-1.3883262938018528,-0.07372904393478813,-1.4044038055194221,0.087069791908242739,0.28267421552487065,2.0954701902868513,2.1139077177441754,0.28511458971154674,-1.4166028536948998,-0.17082519691280737,-1.6222029910484193,1.646611037947201,0.33920623963415686,-0.19434500159015211,-0.65445937190204073,0.50143307645509938,-1.109561334803749,1.3555624440706293,1.8354459616270886
0.69901895651654211,0.93165391261291153,-1.0258433860378919,-1.2066686138704472,-0.092480274629043221,-0.70352877883476717,-0.047859574316677991,0.61686705679275111,0.68504963326306301,2.3091477082868099,3.0776062535924917,0.68265708596605179,0.74512888469347816,1.624811777724174,-1.8797520029859236,-0.89430444032147349,1.0805534002072135,-0.67563244038253301,-0.98411285397746906,-0.30040287563526424,-0.44632191099875013,-0.76353020476895095,-0.46229308426496263,-1.9960158326353428,0.56380042559222487,0.23209727727122217,0.56127231270460876,-1.5130732382388188,-1.1738313648741654,1.3845358101861727,0.13597276750809603,0.15815184762060508,-0.66965168326021274,-0.75155740928518067,-1.8505946164513956,0.54658795103164703,0.15711653330078407,0.66826159828429232,-0.69869437370094944,0.25890345431466333,1.2474469473492416,-0.51677386111141999,0.50749437430142563,-1.4509430427025594,-1.9541153764369226,-0.39253166695255759,-0.68600175803478203,0.45407561521334494,1.3833364988074823,-0.84674880979347555,-0.23259104025963881,0.30765601439235457,0.54789262604647693,1.3688824710698031,0.14677175911420637,0.20950947322150501,0.95241564248578314,-0.17239672079444673,0.38732534414934544,1.916158189590714,-0.31298441988862818,0.1239405989243786,-0.50173758058387807,2.8579990431982387,1.1176304001870647,-0.55778417687394211,0.14618536734972568,-0.69835004035898651,1.3474502898812686,0.76207837001098311,-0.45833451316829521,1.3418641453333175,1.8628474180896746,0.63806914653737867,-0.86627435358459259,0.99575702401014021,0.23362286947280467,-0.39080969982691838,0.22904687034048843,1.2676590301171786,-0.085242121276067367,1.3230480305969561,-0.089258836446225176,-0.77544472048273894,1.5093252291069879,-1.0097037541011145,-0.25878207089862976,0.15821224274547419,-1.7469754426613382,0.23696897036181699,-0.06979570694760831,-1.2720888835732804,0.26672777779335644,0.45435438165061176,0.60098880343882488,0.067953040535344233,-1.2069702845979262,-1.5225929597956829,0.26063819179442138,-1.2823435641208003,-1.8215136312799265,0.011445769106432808,-0.84698581898984449,-0.97724920881239186,0.69721730212785504,0.22019512326554233,-0.16418985516792844,-1.292193965303984,0.90222303553356131,1.9475562506241753,2.333245961670753,-1.8554916697094388,-1.5045912617336192,1.1839340642699505,1.3913480003749701,0.33737092630586524,-1.3586489044650678,-0.5447262027349461,-1.5065207694291867,-0.22245454526611608,1.0430910122284136,1.9038495240678122,-0.06932287620996383,1.5779132168593137,-1.1960184571833667,0.81451988971604172,-0.1174918945597753,1.1953735938309655,0.24975246655485539,1.4332266225903088,-0.48135166642286448,0.045684203480356636,-1.7420193680613312,-0.010038058555829579,-0.25805259616262044,0.40290837262712409,-1.1593432084665207,1.9557164865297598,-0.89436658364051302,0.23001466769737855,-0.97771122380279563,0.35454003633766623,-2.0187822674956282,0.038964660654558794,0.085327567159003137,1.5806166237085502,-0.68652644331951462,0.56995200323718265,1.1881349585350041,-1.0733477390308948,0.31514843010971588,-1.1651282431588126,-0.1158290562878649,0.48892041766020294,0.45732952080929878,-1.0783676732691732,-0.38641938883358412,0.25115238838004139,2.0220146758862225,-1.7245069925890799,-0.33253660390829154,0.14002620275884164,-0.48616125044653419,1.168982923895854,-0.031864979800954964,-0.27470201028558866,0.45807869406667212,-0.077331786403446651,0.7439990223378159,0.75112900137308058,-0.37195497901963193,-1.1903966256293559,-0.62686781534547376,-1.104528445870429,-1.5116670536516557,1.4142777023728208,-0.13587039813567806,0.22774149605602628,-0.43644802003584277,-2.0249775244524622,0.35080205848490992,-0.78470501949341809,-1.3088105388343194,1.7691897310621321,-0.0098204401043869988,-0.49673196340210046,-0.2983893089916177,-2.4039598939663263,0.33752670229613735,-0.080577541513353432,-0.48211005061323386,-0.14433391984261071,1.7413992834642025,0.15818231483532602,-1.3507745639867252,-0.81115158629455419,-1.4888828416526994,-0.29983370460139402,-0.99837088246306749,-0.62002629864355652,-1.4483690356998227,-0.13574009353084968,-1.5123267621169858,-0.054842804796378826,-1.0950807313236617,0.28764181819978318,1.6322142270769116,-0.5854886323878572,-1.3133987475657949,-1.0119753542738219,-1.9669495880214409,1.073893473670112,1.0691867739996346,1.1910470662648938,-0.052220825491239874,0.029227292158418534,-0.36816604573287132,0.60762599961635966,0.38754810321873689,-1.0601392615733536,0.15282173260862578,0.71214606562011007,0.95688022984825027,0.41147663192504869,-0.90609531629649831,0.039507588277140064,0.71552527395563326,0.95138802011535273,0.10402053786642917,-0.4000370197277201,-2.3582815278626876,-0.21181051735211581,-2.43053380931102,-0.46829658269461782,1.3254964397943203,1.5140817109979365,-1.4408189908807119,-0.45548347653610932,-2.0011271312729741,0.32518283552555127,-0.44388753903480649,-0.17347369330923462,1.1200853422649713,0.31982497953691291,-1.3546219697350423,0.90001741452596207,0.65349660203378679,-0.92579467227817691,-1.3452620894649798,-1.8962663884163118,1.714317047182931,0.63621059551312065,-0.9284593558761749,-0.68620322369365294,-1.1306247290446545,-1.0440118076073097,1.6589854024668402,-0.41817169863797793,0.57649519714856712,-1.3090876122473936,-0.093407204041587116,2.3913754298097034,-0.081746589673198172,-1.4837252570608801,0.49171465648899421,-1.0663930407417677,-1.0005352574397002,-0.8124459306228331,-1.6169621041181044,0.55487801146846583,0.39921200418954617,1.2988754302969869,-0.71560743016441009,0.94554706560002244,-0.80894542807789882,-1.4916247108276839,-0.0073836841099524748,0.85730660763212518,-0.31549599146927115,0.65032068078791994,0.1002992591805288,-1.0342199795508205,-0.013820270765736746,-1.5091236595439697,0.38438893726903967,-0.012666739083486598,-1.5306876274331287,0.18845285196799827,0.6280189129334881,-0.31406224069349142,0.88018148581221956,-1.0537947516247042,0.015148834633516534,-1.9094201312833898,-1.7577936206790827,1.7937810483648371,-2.3795429599775337,0.34914555349466159,-0.037719173453893098,-0.54071364182065818,0.37605216618600495,-0.35323744645741756,1.0988254331538316,-0.50376358460804838,0.90041514717563453,-0.37442033028463995,-0.066741073529560171,0.92543603758478088,-0.62473310233483614,0.47253254321769439,-1.274415081829775,-0.10273013114891222,0.57967856092713199,0.16128123576568523,-2.3417725598484052,-0.49191584553210066,-0.1098875116889973,-0.96515854167561144,0.40229675506942414,0.28328829962882723,0.68189063185601029,-0.36076122616419803,-0.72656173936255952,0.71056684449421081,-1.3792007636872599,0.39817608250257491,-0.2310012793456247,-1.9197289881670878,-0.89017727559488646,-0.66114517944464968,0.34967388373944536,1.4781643651401335,0.39990493488303369,0.44168446463100053,0.4218717373812319,-1.8686205633329573,-0.65033687819892783,0.12700404903370122,0.60780734229172695,-1.1025311581225044,0.13889227478847835,-1.5183769228932809,0.50307031735654062,-0.15177772089934455,-0.35637348441075012,0.51157569732560149,-0.71141039160288888,-0.28308381916979936,0.32179518423466114,0.36676029397106857,0.01880179653056659,-0.72027185621049072,0.33942033266692218,-0.48885414459084026,0.83306447016606322,-0.46894141582849519,-0.36025966505015505,1.0246886967994977,1.1355418221968265,0.036460182452619831,0.46825688283955097,-0.80162960443394504,-0.60189343033403975,-0.97268343480885766,-1.1335840802895998,0.66757899723966119,-0.28632615974456455,-0.76447582142574932,-0.42557277733750148,0.84322585468574662,-0.99083681302391802,-0.36770445889297515,0.30076254180389439,-0.45824663835498575,0.86313936576755901,-0.054654822408259376,-0.74342402088185278,0.19917066603765313,0.069744115202017426,0.70764402063028187,-1.5425565268472281,0.35528334118856703,-0.022926733932815364,-0.091337477273018178,-1.8625790039713341,0.75010233040768426,0.61423505676413348,-0.47614842293768445,0.040981371162185309,-1.695508456376837,-0.093784266790184659,-0.32542090946561575,1.0838854511569529,-1.6165739295753769,-0.028357898699243045,0.46787396237611095,-1.8041800890148665,-1.2373604557913149,0.67300536772287212,0.71219499706040845,0.13074138941353702,-0.7188887366382668,-0.012469084715069549,0.80601224061928645,-0.25142173476483304,0.15604303630528626,0.28646505834636526,-1.0214415999303144,0.068486440088629044,-1.4080122305019342,1.0543488806513119,-0.56494064088060558,0.67622272999676658,-0.46744464941831665,-0.65813611592846299,-0.22347999999801499,-1.245910000732114,0.14011681049858338,0.97752595435975143,-0.061077210254567492,-0.24356753964072911,0.79335279465167674,0.40786217746743897,-1.2421518165111947,2.5756003217053016,-0.73211899878894182,-0.057233772093219004,0.13363478585072155,1.4780371427021792,-0.87182559751776167,-1.590383849527359,-1.369887466967358,-0.24213633938362153,0.78075191981842362,-0.17679692648152384,0.047329529191735817,0.10574219343938236,0.36333484152857731,-0.67474809121314205,-0.072413444488442724,-2.037580615387601,0.91473787365210701,-0.63988223194512794,0.74993158920262382,-0.60484301586358113,-1.7756722429145637,0.24210356202700548,1.7267390287296034,-0.4408949224584286,-0.93356972338058686,0.34075484602784911,-1.7541785733159541,1.7963128940359918,-0.58047722248182831,0.84398900697568846,-0.51421496046367932,1.1517278786715015,-1.2063435429445075,1.3576940100566328,-0.1496299961664678,0.31862167557903653,0.6304843937410527,0.1664879608000551,-0.7040946967493561,1.9516850570398028,-0.26356085787712091,-1.53132133929313,0.79413925163392818,0.26261267963049756,-0.75570814398958175,0.30929068290156891,0.51126201045566844,-2.8931126274760559,-1.9034436013640754,0.24814310486776539,2.7625497325803141,1.0054234724314814,0.40873977273783557,0.041056482316929044,-0.31337105845455338,-0.92154226803681882,0.5512098745933881,-1.8079313386279738,0.7634447812543691,0.49015470906761544,-0.6962164135671135,0.081284341522087369,-2.2396695175163015,-1.1404024617645794,1.2027796240617257,-0.12154362387309205,0.66094349135425945,0.50106203110711411,0.092657736988380701,-0.71774216810411562,1.0483501147959755,0.73911199351731305,-0.85441524628746401,-1.9734564446868075,1.7762298794271754
-0.023992470805090919,-0.58810105377348632,0.92412558635071163,-0.48583268038903815,-1.4140337831106236,0.19076943795617116,-0.71589564320580623,0.8006974619394488,1.4018501667699523,0.75194144398528839,0.61647874257595747,-0.55309452317101904,0.70607545501603697,-0.70998763651098007,0.21329087247547274,-0.020632731188870101,0.64687932857357566,0.45783143526096409,0.13889308469926431,-1.1279607404914029,-1.5847347108626217,0.30536432836803923,-0.86527838177749494,0.27503543138600905,0.6651571539125215,-0.69878233474479279,1.24950865567373,-0.0258061856357523,-0.89007329892792575,0.57946726536753823,-0.1302625458799293,0.97052246432123312,-0.19679704650185531,0.51490951691517706,-0.35684067514068357,-0.90805195402422745,-0.83420054707879765,0.17310799237124794,0.38513006682165185,0.24611293112831506,0.19796487621542552,-1.3928111305279984,-0.8440164241816327,0.58793711718868524,-0.046697998028681097,0.025195255161403193,0.63597685548429683,-0.38073019087056187,0.43332564927024741,1.0639044683556718,-0.4259849465162735,-1.9711846253766365,0.19869220364417906,0.76277247836460871,0.73885894201348445,-3.1087809049042621,0.076810240817144632,-0.30353447644911397,-0.15637928045576432,-0.98649185047912002,0.30126217448086423,1.4265731225691509,0.60550502257963101,0.73088956584313181,0.93891245596207096,-0.31319511156769098,-0.35348755229618084,-1.1549852418368836,-0.89525011153252843,-0.1231596291829149,2.410087593807642,-1.8355810508719741,-0.44650469691454109,0.59197830573449206,-0.57011776382594836,0.6207311948998836,-0.30889485476115203,0.82169735978155833,1.3168643001741123,-1.4453703562760685,-0.79432288379839489,2.105101840077432,-1.8243893618270874,-0.014960752865107988,0.18550912045062726,-2.9818565224224685,0.60027245190281875,2.4839607189390374,-1.5461535673758642,0.78125789241050969,0.67199844447614765,-0.594736194519487,1.5747558443744882,0.8583949528264565,0.58137101488367371,0.26973487302483623,-0.71709338057598981,-1.3832690028978367,0.32183306641440573,-2.3199557412744642,-1.2499143983479368,0.84825874417434532,-0.49099657466105318,1.0096239221993584,1.4515429409562581,-1.2593183511411679,-0.080118008393026977,-0.0044753207362002168,-2.3481454868520806,0.85696678353694911,-1.0223923402786419,-0.44457705036132517,1.755950489012164,0.32373568464589991,0.16990822644866943,-0.13357316764419688,0.18861398571285401,1.7549079196511439,-1.5785562980077561,-0.96200811135349962,2.0179759346905022,2.0585240531137767,1.037964399593422,-1.6987869646701448,-0.04687082762404246,-1.5047820475174225,0.74070467318563549,-0.74193460994076565,-0.4763605034273849,-0.84189227696069879,0.44295491906229822,-1.8928996596714844,0.29036033557765001,0.40365830768538757,0.40065628261785935,0.7704167646710387,-1.3394681638395896,0.0821423517878455,-0.88617525216320747,-0.96786581624928869,0.59598344614196563,-0.72418238704231075,0.69179582015998109,-0.22865990730268898,-0.96383526039074219,0.41832063295075439,-1.6157032037189496,0.75252636163509834,-0.40310468549245448,-0.86545590205223721,-0.87249910869397374,-0.27334389017400745,-0.054447571839781536,-1.5618361030933967,-1.2711631621748236,1.1201660408028677,0.33638756788790791,0.050904034121186624,-0.085602465517938278,-0.02535434127418898,0.45568711087351271,-0.34198827450307229,-1.4906076573469145,-1.1292137163645164,1.8138648420151073,-0.98329874069262957,-1.1241683191585128,0.17266734494597219,-0.29227357614648519,1.1179878092093143,0.25006745137197317,1.5272739840399145,0.23304860948911046,-0.78104366036403527,-0.050143659295682756,-0.31256782313594927,-0.64610272698003224,1.637389478720668,-0.10568468955053367,-0.029157719175263549,-0.85169600275395196,1.3673958592591751,1.4877517837017855,0.44654739782853808,1.4761741910911885,1.1506767428055469,-1.5865931781272313,-1.2303424931766433,0.45489662433890682,-0.32181419942599487,-0.78874809675134649,-1.0225800408545256,0.10024073689882072,-0.27657660101242965,-1.0122006824895631,-0.065890402571938358,-1.3209131595264538,-1.1987267004407909,-0.47508678108872421,-0.70587292547371938,1.3169282000745428,0.69175861611759937,-0.72406121132006651,1.2705049120851937,-0.54669234568127156,-0.071712381247112142,-0.10699643471905043,-0.082535977523998272,0.28535630458362743,-0.98220708756227815,-1.7050521498880116,-1.4939383260998371,0.65034501588344507,-0.60871504808945121,2.3677752734396966,2.0148238724991039,0.42021051043110785,-0.39629290787014448,-0.98275475770110898,0.42903042008384917,-1.1740069166834803,0.56776628054701062,-1.6203421350241931,-1.7675957434646536,-0.67111678267168196,1.1913646292090758,1.4092149431123298,-0.5271141434771579,0.50093804738735082,-1.2197332084724046,-0.8686234971414577,-0.075236615460787859,-2.3906276640220088,0.35833670837912734,1.1244625566182427,-1.9072540083487948,-0.045382799808887743,0.77042099189938917,2.0808742785477534,1.0238997915765811,2.4074662938530582,0.58082141341417481,0.10012688587844207,0.90673075011688675,-0.57188215879571891,0.15493990102404653,0.22716370004247763,0.52073507596098489,0.88865224083365768,0.084284415056457132,0.33266342764672369,0.37983912575773715,-0.6792363790450755,0.46431728682737777,-1.013246362765555,-0.77667428443194242,-0.97308650271341135,-0.24751650543226442,-0.49858309048244859,-0.15891709152881908,-0.63342361236256539,-0.51549934834607547,0.70482203244896968,0.99157593200164706,1.6523833593030193,0.08233109843882902,-0.34761210831920281,0.51400596120839992,1.1742919241249925,-0.28022877599396773,0.35380132573885931,0.36294412320546615,0.63936087655714235,-0.29880464292811715,-0.74944932595152414,-0.49223444488505219,0.1724099801087183,-1.5428400405770519,-0.24379003932125348,-0.23752842227059576,0.053850068400255871,0.33442373446783413,1.1066126553595008,0.61967141890948529,1.3653733555737515,0.94577034790780223,-1.1756833099852146,1.6348194288463669,0.37317534289511162,-1.3656142688861677,0.28319058831305105,-0.82946794818301117,-0.48410657196404577,-0.43581119112292827,-0.45257488723292488,2.3825081755397859,0.29787017387273873,-1.7303386484256829,0.6255507334576913,0.75790358824971094,0.81382220255916626,1.2961179680117907,1.9154705436305424,-0.63193071281805269,-0.94243331325245328,-0.76442031958652024,0.15075003035486453,0.42590917941183626,0.1891385895552839,-0.5349490430270043,0.36502350095515057,0.057895922142822104,-0.0043227815025401626,0.93701091626083899,1.8061660969498019,-0.44633066709143093,1.1619131345365321,-0.5513847221176903,-1.3479373295955359,0.67854120992043954,0.60278603494388294,1.1529033155789905,0.88938892290942473,1.8400770032736784,-1.3396961389543605,0.71522838681590073,-0.069862175443858116,-0.4259648660606562,1.005729017208242,-0.69035550556521108,0.098473921883824644,-0.34272649740433764,1.6665309466203564,-0.072650815135560196,1.1429297327196197,-0.25025909836906729,1.7271982427060801,-0.42197538634820314,-0.08472391503017955,0.059667739930912789,1.5924088975586179,-0.88277320009971483,0.050059636984956614,-1.5002649840921936,0.12615677132726139,-0.74517057307482482,0.30589309947564841,-2.3151302606211774,-0.44751863884551785,-1.0424346319580964,1.0941240838340327,-0.0030944482869385841,0.0029749177414554648,-0.39602183683447867,-0.49238249051188598,1.0965192152476295,-1.6004575806795334,0.79820339380175154,0.85999161736220586,-0.77422853681731274,0.53875575111367646,-0.98702108293296098,-1.3084574674234684,-0.18364374829542485,0.008018432374529063,0.83886726970964887,0.19616631112237359,-2.2438792522647004,-0.064281710971283185,-1.6373815170479131,0.28128839705418429,-3.1552400723724463,-1.2793808587966859,0.031147639471713732,0.66993835799540447,-0.99019215582971354,0.17835305703632987,-1.8043709200591149,-0.83700663294381294,0.87785781400298468,0.42445804745444571,-1.2713325957258541,0.85001047881230551,1.261428899640912,-1.2654641327651945,-0.48866952563719079,-1.7684361768068557,-2.4659676827828876,0.16239999303481667,-0.83905776016810618,-0.7389211205260513,-0.10067424989402582,0.43804674752856121,-2.0668716370552769,-0.77145528750557468,-1.1902831684084545,0.15787325850134878,0.4143727262379206,-0.52384119338273838,0.32873271586777902,-0.62573071237339262,0.68886120936468587,0.93697090148999684,0.10615601568844335,0.0063598244592941392,0.55440626469176391,0.1539192661086996,1.4014075732547506,1.9559037663513155,0.3852921923136573,-0.48837922624585989,-0.099519665460383877,-0.58822806549899032,0.82217469118458153,-1.3179644669481778,0.84504938996255374,0.61827018993518812,-1.8491684398476931,-0.48319899111606995,-1.1750834194230781,0.123734053174462,-0.77335602081260035,-1.2111920285134856,0.41464711532517207,0.81519273483042232,0.1707376037369101,0.44943375688067017,-1.0253326034702284,0.55849655165695078,0.37589574372892193,0.54070545935444914,-0.18561138162649973,-0.11129575497967213,-0.82759204423093069,-0.53463588288829,-0.20702336167026344,-0.0077491430598164018,0.73273403149886251,1.2275779802796805,-0.32798902375204197,-0.80415528714766082,-0.65299297667515011,1.687764201158946,-1.041975756249208,-0.087128544855148454,-0.21759649931325675,-2.2334526401595953,1.3767781174174307,1.3411901232001311,-0.37254374753450742,-0.31658876345148668,-0.45077110754115018,1.0809920677479432,0.97539449493258545,0.65930512338993386,0.25888275394976462,-0.43892458935180506,-0.64544771695131886,-1.2241169799228577,0.65958734721359236,1.0956398577923174,-0.984287976830301,-0.19830406455582208,-1.2380916873162098,0.51115060104383014,2.7779796533060228,1.3951010462727491,0.4742040656301123,-0.061746522482655927,0.25905816722325919,-1.1674398346668473,1.5857607179822233,-1.180728830404842,-0.89691349643709595,0.15906409130043225,-0.60078612574313828,-0.21924014719662041,-0.4888956532946071,-0.014700291564007099,-0.45405699160747376,-0.27807778378224096,-0.31911666287132989,2.427909608157127,0.25853433283282345,0.98206868337876585,-0.17386009647457157,0.20648278478014293,0.49541980253210649,0.75579970319965062,-0.68193992496695899,0.12953538632291295,0.33410321702525092,0.68142280443242698,-0.3815498139882601,-1.7831363185168385,0.40312063360564826,0.43437101416809204,-2.2766347821814006,0.86282504299307428,-0.094705625420445791
0.27336163051281165,-0.5288300552440206,-0.93210579283322648,1.0724883141111319,-0.72104638663530274,0.51394719673157718,-1.3131945123822575,0.12197243281663232,-1.1623291506236446,0.30083674827942769,-1.7555462054035125,-0.30293919282692261,-1.4982445516092679,-0.26468469727664784,-2.8459087214567602,0.56159528413351945,-0.11656928657669162,-0.26848639742035163,2.4179927935915035,-0.14023705695194469,0.90876696569767057,-1.5912375612746519,1.4671721107631728,-0.97649597056686621,0.16876267609346296,0.53461177311936048,-1.2796390658745675,-0.80163021424930314,-0.83388160625021523,-2.4314485559999901,1.028419296321762,1.0196861651921179,0.092690571468680844,0.25176253090029488,-1.1739093970638397,0.018604674475811631,0.26062856907318122,-0.6224662297511222,-0.19553779001782187,0.20964846702119952,1.0454873874670951,-0.010057632837754881,-0.30591433165969423,-1.1943436107527861,0.30033488101501965,0.33128737409403314,-0.27411690926537008,1.3348929722201568,-0.25506979771189758,0.44346411476709674,-0.077215907879663176,0.0046752518838241545,0.12918987728860956,-0.50095060713423456,-0.054216459759097009,-0.56887483341366496,-0.029759565543981546,1.325398537672017,-1.7951687576278126,0.12287311542436469,1.2421747807725156,-0.88852191363320177,-1.3639963298096203,-0.69029758732787083,-0.45631039148662472,1.2222668715020055,-0.63344402699840119,-1.7401325732253126,-0.35620428787559705,-0.15402995602440692,-0.10415342985127235,0.89360064143962581,0.40823642759940026,1.0824314553383219,-0.49410232376716851,-1.0071676992725238,1.1232441521396597,2.7671513384884743,0.19715374660389709,1.0004815171225672,-1.1436729766026863,1.0192713689691923,-0.94358446085540615,1.4848809299398289,1.9663417905911764,0.076874216209007029,-0.50657523884944899,0.61062019992342265,0.12826867451163965,0.58356071407581633,-0.08608504835412438,-0.53712902951876229,1.5649308172719509,1.0541198604619597,0.18259177091773829,0.014778837186678353,0.1428297807306976,0.81880046433686571,-0.24042055457886743,-2.1056142342869464,0.77477058105645891,-0.32311103038946504,0.22684879461727234,-0.62814489556472353,0.45741104074308042,1.1309071672034816,0.93847739967798949,0.090104553482760696,-0.90766645102971588,0.89911015892775648,-0.51239324457824409,0.23449868059366255,0.40106558497734024,1.3107957187337576,-1.0414089949495267,-1.2045023254065885,1.3305323907015727,-1.4300733666751422,-0.34032470162116013,-1.7254153347013295,-0.074521692674791723,0.57051510787088722,1.8657595950366788,-0.66422807129505379,1.6068094612510038,-0.020924788381286755,1.0591508045210234,0.85596776750805381,1.4295331940893432,0.14226139206366298,-2.2731192253329375,0.30376477066572077,-2.4917907200753877,3.1650439084441095,1.5151525075637147,1.2390679715743131,-0.87665219755847146,-0.55805518689804334,0.34171199388571127,2.01997953117715,-1.3538032617021361,0.62334559954209101,-0.47920462256137691,-0.35471876528703733,0.69143645116087804,0.46085134355966717,-0.31818006397454024,1.0590141785660261,0.1823753092504706,0.80466934721320083,0.87935441283439475,-0.059036986969943507,0.90600330333092949,0.50393478055878516,0.69978592724882405,0.8886061055931237,-1.9605133119902209,0.094268840886324992,-0.05632617310446926,-1.4041722330549189,-0.91165190460523393,0.40356085527501101,0.11267132227752458,-0.095247577185388899,-0.27336814378296465,-1.115119194123837,0.7408822611953978,-2.4462241643663982,0.4991267377934378,-0.73189857286287052,0.45588982772027148,1.0873012653068101,1.5527209440384568,-0.36920657424369313,2.5002703510139335,-0.92843655749013787,1.6679238178658506,1.1559161589239388,0.36534568358019576,1.4691336823131187,-1.2553992392269484,1.1045347834126207,0.38597086160831173,-1.0069769316711357,0.84480768683442886,0.851375909221327,-0.85793238021939988,-1.1965138179745434,0.18395506041198603,1.6713834943207255,0.35237163416213452,-0.30915951643070494,0.68127022233952128,-0.36271815012948128,0.73412271455091305,1.8564542092946408,-1.6046008823089675,-0.41483764809520213,0.31079188652000311,-0.23408163411723987,0.41708908965496788,-0.59792093485021669,-0.080550729139859112,1.5757348654326875,-1.3597041274411457,0.98520408044565366,0.049521198305766352,-2.7103231112453114,-0.45033179442129695,0.98464200844603844,0.84236338291660151,2.5280434386167276,-1.2359089930379155,1.2415952507944981,0.29883707292039047,0.25092734437613901,0.4477822647109268,-0.14589243691557074,0.56540910217362361,-1.5995536311386087,0.35251122449797334,0.83577385857505559,-0.22024484551072612,1.8486273748700979,-0.82881171601165793,0.0502698813868497,-0.144724857957228,1.3170769477700732,1.2464458672581709,2.2208398031695529,0.58777187052772917,-1.4403465683338952,-0.44991872449386233,-0.77237020000224144,1.8682310867462408,0.15440136448679417,0.55632827999567169,0.34922929071052244,2.0245895000891974,-0.8660896601285325,0.38282664507586978,0.26586140051379459,0.68660981134024535,-0.26707708393517077,0.60304797675516808,-0.29719843088316472,-1.0986619977674474,-0.94825769287733153,1.9667667124338386,0.53689059860054411,0.095876200005232171,0.57954715192631634,-0.47118568400303423,-0.33569109164614447,-0.70945878489659664,1.4895682196438571,-0.6547666829148816,-1.466549850262042,0.7523201787868552,-0.58179809687678774,0.66646360060888621,1.5322244989454501,-0.088235656738673077,0.14588399492660553,-0.39709193492161965,0.50375279683753216,1.9927750429399824,0.063804278211981522,-0.0054765249708826321,-1.6437105075467808,0.55003864447001682,-0.53777181403908192,-0.57797479477501246,1.1542470455091993,0.86649758260749909,-0.17956489493000741,0.37544734306727889,-0.1768602325229757,1.1894921973762915,1.7585029062851556,-0.9022129246084809,1.0788309626872881,1.0682557153053875,0.74745899703216778,-1.2761911774158683,-1.146407579823004,-0.84434202211989318,-1.0184752085336057,2.3188484485279899,-0.079457405612287355,0.14510147873024934,-2.0136593005289449,0.30821287997951402,0.7045181659617753,0.45529196266986349,0.25902249647755038,-0.58333552256029908,-0.81450895790232281,0.54460838305541603,-2.0710318981141702,0.041709540491067308,-1.3998229967604234,0.30333772510322921,-0.60627404088967762,0.029009992857813572,-0.28024731445611895,0.18464885017564453,-0.93459236923641631,-1.0210833506977746,1.053955320722114,-1.861170808154224,-0.3341312211380924,1.3121858378796507,0.010747984453611786,0.89030703210928142,-0.13331212225039019,1.1280716981920731,2.5555491499541785,0.78245955364726105,-1.9873902747038048,0.035331375964481319,0.74477090877157492,1.1817432870225215,1.2044067158534564,-1.0005648298289307,-1.1273745411993932,0.65903454655715388,0.92378003808111908,1.6601055792466601,-0.20461526185423329,1.8600678366106502,-0.66596711040836321,-0.68478511909416928,0.42637542731108191,-0.23037907430178223,-0.74644292931812306,0.31947012481403714,0.87521137989266551,-0.37352123690904754,-0.36376838378940446,1.4705067253153954,-2.823719396118844,-0.6013059322498473,0.5084050453825768,0.48918281253555318,-1.2520094091138236,1.4258773751946079,-0.54928073910827202,-1.0707980050933896,1.793481142934759,-0.66761621114022152,-1.0787100348320053,0.10063762577333663,-0.089213343479883148,-0.45258994432542216,0.58024033607591341,0.7686479433080412,-0.71081703841812849,-1.6225747963662713,-1.8769987225712517,1.8823826066235254,-2.2241766430434762,-0.81737319387579144,1.2182229623922849,0.69228973388819237,-0.54288435112955347,0.17186691780500582,-0.34351435411710768,0.25341683132972748,-0.024763193412200117,1.0763613406880104,-1.4779199328617576,-0.48151178354678259,-0.7121702753847492,0.33414790444775244,0.089162608510084188,-0.96255757037326006,0.71787200105720639,2.5467496768247235,2.0134211971715392,0.47453213277122896,0.006846392829180886,-0.12787863083218459,-2.499748352474835,-1.8010637305471695,-1.5945143778365625,-1.167552656727731,0.30241708660772443,-1.1125361154771369,-0.24364170986836872,-1.6752009525285851,-1.6001073578523262,-0.7185429601258575,0.52596924937298994,0.82019565877825285,0.44679127574474847,1.4695006606861467,0.6044432221810776,0.23257064703119074,-0.4916055130735002,0.68079784499699048,0.29393113320263337,0.55197706451113637,0.61175330685070928,-0.27489008233892787,-0.87786878732775686,0.35755837265315665,0.37577637947602083,-0.65409286460032412,1.1723258119481159,-0.11824130664208811,-0.21466395989362735,0.45701079049393267,-0.41914233331912254,-0.55683813085989609,-2.1312402047645058,-0.31549995534563269,-0.23101316580441472,1.2307419662599441,-0.71332421492005804,0.22166181295894649,1.9045768735826611,-0.26560088115701291,-0.53017008531607146,1.1563845068959744,0.54733285047921088,-0.25594329166474339,0.2689683883897066,-1.803288441333754,-1.3891583614966048,0.21690069257283345,0.71864216863537778,1.0625425545560987,-0.16268090264864404,-0.71212154610814959,-0.53912423263160747,0.71483830625393407,1.4967673749537758,-0.16430399673275775,-0.42055055243511202,1.0638679560931261,0.83398453326525601,0.68935628340485622,0.026659824995136618,2.2486075442032423,1.269485131050093,-0.94367048926437624,-1.8897283455707681,0.89193584874226528,-0.1198515633135835,-0.45041561507033895,-0.54295607378714594,-0.050560684853159295,-0.52645271747480316,-0.61516477109961443,-1.8826449133527314,0.24441698689037891,-0.98182569549642962,1.3110456418996674,-1.0431526573663379,-0.018221926623881404,-0.47008458001970455,-0.45389335704066036,-0.59681176900201782,-0.63487314442700493,-0.15139152857712437,0.17246590662240349,0.66406261196299821,0.15923046253394152,-0.1864396002050287,-0.65157591825706263,-2.7188633971898097,-1.0773328234935198,0.82824441229527845,-0.22293266511519813,0.12532133181801472,0.30488746395571703,-1.9764234599355641,0.37329628824062988,-0.57328293303888267,0.56632926408981132,-0.48372935633119296,0.36290016404632303,0.9392805676532382,-0.10843183939176222,-0.27076846866267018,1.7116848498135389,0.24735396637285639,0.98476161165608134,1.2362333531918546,1.1225273777786149,-0.39262562016468927,1.0065641351792645,0.21643840122488436,1.1680960932021709,-0.95281747694674246,0.18016845586299216,0.62594497400032667,1.9457612863489142,-0.33186498297261385
0.30903861712803826,-1.591292988279698,0.69687797304923671,0.24543402211480064,0.80130202936532779,-1.3507616321751577,0.64496743223866804,-0.52628898749343511,1.4727229317571828,0.78502514221708852,1.9137351539811744,-0.73220091775531071,0.75192388823841061,-0.24303525461407979,1.5322487399577975,1.2027181507285978,-0.040466520396598669,0.25773738498570703,0.69462765048944874,0.11155468256811302,-0.54154606550639128,1.729393455526727,-0.84735044137808968,0.55130570200959239,0.089425517480130098,-0.96355857737601913,-0.0035017219143174652,-0.24110728773165008,-0.56560284058679089,1.1707808926080421,0.51879156341099308,-1.5035567811578563,-0.29758296645400789,-0.7757799229552762,1.2916730186449585,-1.2872458652658252,-0.83932740222902247,-2.9562882605546466,-1.4974789501918426,-0.60376092599684239,-0.82026713184126632,0.80729911635476603,0.48683869693594584,-0.30263052041609406,1.6810008490826585,-1.0516689635237109,0.34290556237806763,-0.20740106184111493,-1.1520521283435921,0.73014113134038994,-0.34450548314462465,0.6115914139454538,-0.78433057504121917,0.64810395389863595,-1.2722569823133065,0.35452802826439761,-0.9716640035163594,1.3197739005758626,-1.719743469415776,0.35569471935141328,0.47339602913285478,0.013467341058994621,2.3178705615816906,0.16672081054212853,-2.063925438301931,-1.6341205613735741,-0.36221688995190149,-0.46160603407648915,-2.5907600764217027,1.6088879784206371,0.91411535982461267,0.21439330872411164,0.16070972489618754,0.83640391806710368,0.4472706813812522,-0.99643501625259978,0.52330571361912992,0.43643355501918485,-1.0672784816942185,-1.1126418140229497,1.7084427998400926,0.54574752840911045,-0.45155343544309018,0.1195211368036749,-0.62342583534402085,-1.1569611867754803,0.68323143502443151,-1.8433953692516167,0.034135796821372195,0.37702999688666883,-1.1573908695212811,-0.45002097756129311,-1.612770791713976,-1.0709321368517963,0.88717921906717701,0.13422452216724304,0.96813647141977166,2.0202133909397531,1.8786235652388683,0.071542721154298231,1.0134055129134729,-0.8357654163626963,-0.34932745277903554,0.97562977533543049,-0.54278443274529919,-0.81255835862691661,-0.26227693169839189,1.4552047037089082,-0.26934341824895103,0.75047517776198602,1.2177518374255554,0.4181394791044365,0.53472123548420125,-1.3192887246913043,-0.58179377971954171,-0.6987584762336102,0.31897103634091628,1.116696083905248,0.70096659146599138,-1.2054902042510893,0.010737912145816379,0.99573565450709933,-1.2335062507201995,1.270727489751061,1.325438276949791,-1.0029509544247466,-1.4379284161521582,-0.23172416256502862,-1.3720665970166819,0.73066307887531734,0.095267892154825215,-1.1725332453309687,1.0899893039086725,1.634110863626963,-0.69479284721354695,-1.3956291166254189,-0.91111428519483662,-0.1531518030299226,-0.21243918075996363,-0.045485745554639155,0.29458997824719685,-0.83122070958567418,0.42856548217570095,1.1854115679920665,-1.1904041086911958,-0.7429833701545977,-1.1640843954547579,0.44225927345664268,-0.56071726629209195,0.23771857015502243,0.43577320001805986,0.4497202421062908,0.70510645386617099,-1.0628336035489481,0.19567829246366553,-1.890888836014861,0.62208095045482359,0.63582220268488809,-1.4603090767348039,-0.66218400258398902,0.21619984527405853,0.18300021402008179,1.2462476238087463,-0.17646756829310123,1.2851622208105031,-1.4397434841897669,0.23769993239983214,-1.5839244900598415,-0.21497428132926791,1.0761111258631906,-2.0592077857031974,-0.65743136285581483,-1.9047582160968417,0.14591151285192758,-2.3950531704642639,1.7422845614743281,-0.56068797643977109,-0.19341192063039558,-0.74969438796098109,-1.5370443226939401,-0.015734215632494036,-0.79766872302822422,-0.45257520503255311,-0.61317658010662213,0.84340236798674151,-0.18829499650214662,2.031241489020037,-0.51917233313848665,0.68502642104214961,1.2096081966513779,1.2878002004424172,0.26897732160215865,-0.63704117945286609,0.10812176659419304,-1.5516474831616331,-1.3831261166475988,-0.85589840402570228,-1.4376162428449373,-0.03411794292033022,0.5077335709072951,-0.48188991407019366,0.24682562174525899,-0.05397670415483314,0.1643887070663819,0.64615705868798679,-0.85266712553351776,1.2700872476010698,0.1134256983125335,-1.1497912888556896,-1.1119942603103552,0.28888263726576408,-0.32982407889885129,-1.4947291370071967,0.84659556982999273,-0.23467405748233228,-0.48309481697356355,-0.36735661053696117,-1.3220776303332702,1.0732354238068269,-0.27069417844254173,0.53067543722086186,0.007617136784656804,1.099670129540727,0.84599616629938623,2.9634937368199621,-3.1104351266106041,0.29185126596543937,-0.93622552904984946,-1.5226083290665289,0.83141659661268852,0.95552123788510646,-1.6696917169687677,0.99536457855371718,-0.97860397690911993,-0.71249818636525319,-1.0482990304646502,-1.2736158736709,-0.80596995625399726,1.3351235089010973,-0.22760170904338967,0.53925918769605852,1.7401893353911648,-0.44858215680280561,-2.1070394753791954,0.28655235673646756,-0.2594780139785714,2.0307278005374423,2.2465735735513324,-1.197431416899994,-0.6705540452899128,-0.9157442344600234,-0.80524164527075814,-0.5342933460587499,0.14858405927133039,1.4870795766515659,1.4018373710353149,-0.44324241824294458,0.88195333914965124,-0.42702454394214395,0.99507941635540653,0.69473670724395542,0.25931515176504666,-0.82140409951642834,-1.4209316164959638,-1.0845612779765388,-0.1215603449941187,1.2365680366805165,-1.6263303108143883,-0.79867467461611164,1.3365905946039276,0.87175892122954379,1.6798932538203826,1.0321415742497735,-0.62531133707438979,-0.79571786739563721,-0.84779105493776896,-0.76654868473398097,0.47348969747932779,0.10368758264782754,-0.8153911035485768,-0.44820665130081649,-0.33916369744225094,-0.5380626296268326,-0.32270878530438557,0.0065955799576362011,0.31691656647498317,-0.28928474930947112,-1.6092207466513766,-1.5638426637828551,-1.1441791851716765,1.0070379369413089,1.5967637890711426,-1.608947480295033,0.2099508151726196,-0.30593105057571224,-1.1086769431564016,-1.4576842511850261,1.2092777204479801,-0.75499294400883654,1.6207160131330727,-0.5896718142226447,-0.41412163584124784,1.2986492911129444,-0.1526403777129062,0.41756270472473389,1.288357849250874,1.1712562948482614,0.8402821775253646,-0.47150364004120537,0.56693282765430908,0.98361691802594398,-0.47484374524803258,0.38996585357083408,-0.37449761342327692,0.37137629900530222,1.016950003962793,-0.11396406898928059,-0.9233703118202613,1.1189589293317528,0.2743971118765261,-1.1378099416679197,-1.4813966856957159,0.35365344807944138,1.3009885806565062,-0.26890948034843565,1.251420346991015,0.17244783034212349,0.56629952928534855,-0.5717375927437075,-1.6832361846542647,0.77413105669472226,-2.0871548543456075,-0.20920361135253224,0.37513376828091505,-0.50926948985202936,-2.6450032840508051,-0.71134464582726942,-0.6992090868019053,-0.6618801550057879,0.051056789610369031,-1.8150967926195509,1.1385608519224355,-0.17791707798920781,-0.13071445957404942,2.1714120657651415,-1.2736179695379852,0.47451114496188235,-2.5342762459927886,-1.0719434963276731,-0.48755431587915171,0.25203444624097937,0.073895967190360318,-0.12610729719593416,0.0022228329768429265,-0.18949247775533637,0.97983032308290308,0.1242069265908929,-0.72560044406113466,0.95996626589219458,1.4157085640427667,0.65823455000094155,-0.79890727442304221,0.31798438495469455,-0.2488796141013212,-0.93636873626631734,0.26617853261177982,0.18639973951826522,-0.15353815215200284,2.3364162777985578,1.6276273700872093,-0.403201657981547,0.64550092390863489,0.98417300393393081,0.43334992205095801,0.74952321222538176,-0.9783032826462732,1.044091399583617,-1.0590313201306536,0.23265880018332971,0.21965147693562259,-0.65766735582004776,2.4578576524155369,0.61831950238312716,0.56818342340963879,0.2588049315657443,0.26718345366665119,-1.8235617202173708,-0.22536282681665856,0.45139490049698683,1.2396221162069769,-0.96003358974283393,-0.22419124608918578,-1.0851844628657181,2.4959487919572312,-1.3882672027128178,-0.62477018979125754,-0.50487632443915587,0.29970154909361757,0.50439950015179857,1.5207952237438191,-1.3920676628097459,0.455700392540976,0.61566598674985185,-0.96478118341834163,1.7781536839791048,-1.4078354931642623,1.1816401473066676,1.1660874331901876,-0.79350028283735674,-0.60930605025494855,-0.12413311047634262,-0.78942366957300947,-1.4154181797645966,-0.17057584056815023,-1.4451055524596539,-2.346663283121956,1.7108601591659747,-0.4207361564562489,-0.1964256654780282,0.30402948792895013,0.73394137081044886,-0.62218154366503808,-0.0099041323965981271,-0.46213897288323769,-0.76938135131840124,-0.12864914239160152,0.53936785939876253,0.85137740859044719,0.2457944694837528,0.038217855821957074,0.94981569603177474,0.27225718986258823,0.74404981612546128,-1.4450396560977967,-0.19789906856820158,1.0872240351939513,0.11742621550848238,0.31066608974929921,-0.50118737771990174,-0.20441100686376681,0.82535236803099243,0.44717205506694202,-3.1981631903316696,1.6434772296472904,-0.88534733060300153,-0.53660272401758857,-0.67159102947164329,-1.4951191513123008,0.28984641981879505,-0.040269407585041057,0.15927892125911533,-0.046935879834153316,-0.37138804722674268,0.23320968912769091,-1.6030174191390585,-0.26016260534722491,0.36532867339374026,0.13701356423795361,-0.38655566366724731,0.93809359512300849,0.35950754110537558,-0.36402627787288183,-0.35728183841703548,-0.19484641998780353,-0.26772662177527029,-1.5415503606186514,0.085364952226090557,-0.24904404571909983,0.39906501372901515,0.02396087283057163,-1.2931720304619292,-0.13515133264337409,-1.5651294061531362,0.068929904871799119,0.64689764161102958,1.1277101301482118,-0.059142918593589326,-0.27613572779346357,-0.65490400899444057,0.0029565501610006265,0.39996805001836405,1.9580883361113122,0.46675361053243486,-0.32556004737466393,-0.98072469981406674,-0.51302159012855642,-1.3046443972670438,0.79289145988122745,0.98947072431437444,0.15011335617715621,0.077776638756735295,-1.4152294762207802,0.52631401200169292,-0.061599133134882973,-1.2685883553517106,0.053408829428134803,-0.40627503423274614,1.8258984346250486,0.74484032243298071,2.5081766840932973
-0.34213944397424301,0.94423600974215727,-0.0087171174851789265,0.29278182451037521,0.19904094531905825,0.051797108023139832,-0.53716726893731415,-0.39147269583768263,-1.0472598566368705,0.61382878689647191,-1.1240887610470942,-0.30992435665958046,-1.5715023154910486,-0.75463810362710826,1.1232282094981614,-0.45522170017022673,-0.13653680571206775,0.61589312847530364,1.3010077268354165,0.36113622869183776,0.40176034041396624,-0.9377381306593221,-1.6798529623343583,0.82639156802690084,0.41613969930997363,0.15060692218976304,-1.4452382870529032,0.072834444369085996,0.36507360193974658,0.3438221547079835,0.31478722117560731,-0.42494866371048062,0.46542778643164295,-0.51781080053369422,-0.16284882221377345,-0.34594937232995543,-1.6873772391563662,2.0745228887710012,-0.87320924992749249,-1.369454581447644,0.85698342056248955,-0.8998703703491634,1.2873340360192691,0.41909754524795922,0.55632111000616757,-0.18797760138274336,1.0774497350704964,-0.19792119612188599,-0.54615453242221546,-0.1963818324958484,1.1527031638681935,0.044623424188827691,-0.11944543950789625,-0.09274502855181839,0.63763500892974234,0.56664114036030833,0.14954569011941987,1.8774033332685176,0.92978320674044268,-0.0098515268247824552,-0.32502321818965735,-0.93055186105593291,0.19392563035752639,-1.3837254587992782,-1.1914475573064605,0.87190916010729425,0.5509295505317332,-0.79698320293354163,0.041498359442817677,-1.5491484639495872,-1.4708547386816337,-1.5460129327228769,-0.93307380558203779,-0.74283250914685162,-0.31045746450798989,0.69559310055482138,-0.07585858807476277,-2.3000638043516837,0.16332275973053165,0.26863303077307038,0.38318156208337895,-2.2229935337452025,-0.85075514256487306,1.8223355633943012,-0.19931825433313724,-0.71485464620744399,1.0392872737625927,1.1949158155601725,-1.5715528799501355,-0.40118516124849102,1.8694723285058996,0.14341051511385397,0.3927806299624339,1.4847077179059935,-0.24532303319517096,0.13291708712323383,-0.14274523170550898,-0.94498447758335269,0.40206046215317032,-1.2339198037056944,0.06864536725134017,0.04730273188270244,-0.8273948507092358,0.020080665145754836,0.81003111438418707,1.4373148407852747,-1.4477023986985009,0.97606996359928389,0.33861967674405458,-0.10143794064518498,-1.4388279003833775,-0.06975854167838455,0.34589802148427151,1.185903269899822,0.91739362841033278,-1.6132984463020221,-1.8134165295789786,-0.59386318829919738,-0.8234737996617344,0.42892856358469911,0.28599987828116746,0.23633416546881672,1.6142417973764247,1.1394562434860773,1.1517452325250661,0.62053306195840707,-1.8950417139422784,0.83777558539889996,-2.8492059419465599,-0.37159495870233394,-0.57758418417755319,-0.90709257873213023,0.41767405690880405,-1.6126450250482987,1.4699434823594488,-0.48374953629287404,-1.7344842554885551,-0.013562570097189221,-1.0228652176398914,-0.10167933085415849,-0.72069156201352891,1.6479885110883117,0.62837050361629188,-1.0756669707868767,-1.5144876418857054,0.01325740085934041,-1.9177375884721024,1.0760790769111359,0.23033234598954824,0.15816575290058849,0.98324521674829368,1.0589080226835157,0.49076810508418256,0.92903387684753547,0.40270798725286139,-2.450493080799705,1.2594893394520936,0.21018358137350163,-1.2721191630341122,-0.1621827786962261,-1.9227942954801178,0.15617131357404437,-0.15039842584809845,-0.19030291614807029,0.38666619478071407,0.77053373283714033,0.060922641288064718,0.23915765211693185,-0.23778720567970715,-0.36184539444964736,-0.40697639532184243,-0.14493636294363496,0.25226728951760796,-0.97661960534552783,1.5433358338166949,1.0488053724745567,-0.67390069500528083,-0.97220668948566458,-0.3914647792986321,-0.057123439967626644,-0.32341022744446546,0.88050662173687211,0.037427774247306186,-0.20468669717093363,2.3620165880274455,0.66256444988019791,0.7266780843038334,1.3021203318205548,0.81769655535881436,-0.59688906315984103,-1.0411026150988278,-1.343035689990471,-0.7518388022528768,0.40484265589152924,-0.35135148557801116,0.53052065454610142,0.88780502442018527,1.2944261409724847,-0.25237560386144275,0.12983062062980841,0.07622774895509353,-0.48309247092634622,0.44577983978001606,1.630066982658813,-2.468244266295053,-0.88351201191348572,-0.82172663178397676,0.46986155086130021,-0.50185840610661248,-0.36212906643206766,0.93334612289015839,0.40445560321783458,0.22250127054253596,-1.0222127418685869,0.53857184128423896,-0.49509012895647425,-0.99459865573104111,0.39062393094678483,1.0977752244098702,0.33933128052630224,-0.62889448772251588,2.0100316761704113,-0.83961084165754574,-0.78759576809946785,0.18995652051167097,0.59580508964691514,-0.69762765139015415,-0.57464133086448599,-0.45258213408464093,1.2048157860368471,0.57990686722700746,0.11692898577437758,0.8387599709527036,1.6021352321592572,0.90518845751213584,-0.74045609964067138,0.97073619918929122,-0.075554629189713104,1.7558355790275217,1.4737037847858032,-0.92341133931464014,-0.7341672688877392,0.42181202860901695,0.79509315658290391,-0.34644831812795346,-0.49752179554492926,-0.87228658377610002,0.12875742723718492,0.26696994476253066,-0.37363716915382383,-0.35048999550007331,0.64502907975385171,1.8554405345297982,0.82643772745351529,-1.1659035229325674,0.65941637647696072,-2.6260572833851237,0.46070271194156631,1.0165663098003255,-1.6161495343930845,0.60524871478106412,-0.22687862997976954,-1.6740159351490802,-0.00019211911916028457,1.4483087125476846,1.0678514516669475,-1.2035813863460822,1.2303095471401762,-0.1795206231939124,1.0465358494987338,0.85401083672471112,1.3611063078817447,1.8499135013804109,1.7501105043396012,1.1187274364370636,0.17680817616033648,-0.37607158591644912,-0.95597054732192988,1.0836811608638044,-0.54030475066755534,-0.56339021343725404,1.0622932703922585,1.8956233543030188,-0.087191703337595808,-1.4801472899209041,-1.3889851733948122,0.55512298621926315,0.46148000030652636,-1.7717160332087463,-2.2405204536260124,0.066048217676568113,-1.6561856588786028,-0.54121881827253959,-1.0499715753468599,0.046618752746300875,0.78665142028668089,-1.3868803354219779,-0.093724621545103678,0.40374402827235767,-0.026656078076703851,1.6421238834086842,-0.40998997688954342,0.4219423247439214,-1.0838565007315457,-2.5515552447481826,0.76901620766429113,-0.76026979781126669,-0.52112850025958646,-0.30413117995036626,-0.0908288988873103,-0.18433779267765599,0.41887807591325621,-0.4917865353589343,0.41484104492446244,1.6918357827232029,-0.66528551314836937,0.93242195544593098,-1.5848646062716827,0.59926289063703564,1.4322285540919169,1.3264365277467713,-0.59069693147432634,0.5053727695796747,0.6458657141006704,1.9540304819673864,0.49911935719584222,-1.4087476890519024,1.1557395947568683,0.24719117287250122,0.057950881263777398,2.201243263624761,0.22891768873251575,0.92751575488198967,0.98327132732462041,0.68284971591382548,0.15729255021340194,-1.3798144131591472,1.4001148783472241,0.33881325847169169,-0.40212694614441308,-2.1528315605875581,-2.3724183117908337,-0.76663464944713033,1.2327760333024271,3.0113597136776202,0.11291772571370944,1.9413972465378995,-1.0133543511780476,-0.7113050975293792,0.89441393057582674,-1.0551444973212591,-1.2273049365630544,-0.77535521335180513,0.30803225244126475,-1.658319654603422,0.72406246902690441,-1.1042626636678625,0.24148823829224372,1.7744098281042795,-1.2975468651991102,0.98579844148093443,1.3364784381265937,0.85808642224723164,-1.0416609442130467,0.010380689891462807,-0.47037947061712987,0.46361485823269716,0.26120181697309325,-1.1685382941563478,1.9860712364380557,-0.88725466308586842,-0.4421082498192157,-1.0993774007082902,2.0216282554139244,-0.46707464438491547,0.29779404855957764,0.79510557497123735,-0.68967358642157173,-2.5584275113547634,-0.13469155790076537,-0.84274144239940574,-0.94266979375165982,-0.13960407553225959,-0.55025575441372965,0.19266520406330567,0.29875372642134146,0.64094877351242185,-0.48048919848589527,-0.34856521050688288,0.3230943435828153,0.065070172841095605,-0.15518670751976185,1.9398099393188035,-1.2521288482302673,1.102947278473017,0.67851390883284091,-1.6736611729446833,0.32862986977584324,2.2754412444294934,-2.141948409917255,1.0982595570909939,0.35910443980768991,-0.56589877789006393,-2.3921469222215035,-0.57817923808202631,0.6287043345344826,-0.52669146038714643,-0.59828363497535519,-0.33880225014260146,0.7186838632536956,0.093378611947561849,0.023487085381473451,0.98560638945588375,-0.0074994330594303623,-0.67472594672706643,0.0043181833031545169,0.39346224130376622,-0.59981524736610325,-1.2024825450224206,1.7998889342401625,-0.9398894851815901,0.56321267155869847,-0.86786775165942043,-0.82907118333232677,-0.2783227771812336,-0.42102934683588644,0.31120442701954598,0.9701627028453319,1.4475595993035104,1.2116914489326385,-0.64885401078388294,0.32991507895312266,-1.4040791557088848,2.2847298678627861,-1.1372667975775286,1.0961165971114843,2.3171550957526899,0.36666415359721544,-0.42322331519158873,1.532358163969644,0.50232067603204467,0.98019401768500813,1.6320665177845637,0.7667922948988658,0.2487443724456076,0.74786344662766546,-1.1492976376777242,0.27911268895548708,1.8880463679273098,0.57861573896585516,-0.098151338022475915,-1.5568701896076884,1.4214668855284842,-0.6890517042009906,-0.079838697066171471,1.4751138848028216,-0.053894041828399665,0.59148660913304751,0.5676197610194299,-0.31886854913126317,2.7610677038841391,0.52852370883520106,1.2734588559194362,1.1119821384728781,-0.75278658503241713,-0.81001346947609199,0.46342615700262818,-0.30736543011556672,-0.53345508455955415,-1.5655987793251833,-0.083226227851009277,-0.59989998008528611,-0.86341080373754087,0.23170613341804008,-0.33011232869792861,0.67811417784326578,-1.1243214522018043,0.29259532384537779,0.073790033191075452,0.011741539653479658,-0.36302772742202355,0.36719865826288739,1.5516210807258424,0.27850826717619781,0.62892603552933124,0.17324456367004054,1.3772716282172486,-0.47195155808970513,-0.25503559277058985,0.99298716610504345,0.15406259161687014,0.242998432221598,0.48074087398180015,-0.87264865197997499,-0.93675020117286456,-0.15305570483077244,0.41546232326214427,0.094598910967884878,-0.48215587570646656,-1.6494539686499234
-1.1507336446909895,-2.278832144888268,2.379993044071671,0.38945482122317654,-1.2044470566915706,-1.3404874617608906,-0.019607156265578764,-0.88512594833209779,-0.20361591731426923,0.60089562288590359,0.75737914903689996,-0.2675348400830016,-0.59281330582674474,0.59039357885816901,0.80216115755186412,-0.11679008586364562,0.0074144887641913043,0.52717180292782873,0.60881622506511701,1.2275728793386933,-0.55834506785741445,-0.12835220773205289,0.61195756710299942,0.71197439207411817,-0.44677239080029557,1.1712493847570962,0.28326526835533611,0.3662344424027355,0.81397472939476212,1.2139665066607754,0.035014152454694532,-2.6377527535086553,0.23789459414267358,-0.44954579176484483,0.87124555444970664,0.072302027441377523,1.2040699560416481,2.2168057239327932,-0.72711498056845159,-0.62780181985222283,-1.251717499142023,-2.0637891218173134,-0.45433835665070071,-1.8521967202654293,0.26598961308628843,1.119012883809045,0.28184191308070183,-0.27783325758828348,-0.58617559942317787,-0.8760061941763283,-0.44441419702006707,0.3330009254494502,-1.17548146365877,-0.011580313822982117,0.32909247023075716,-0.91434427349961234,0.98906851571438936,0.64957044185419555,-0.58010849017307664,0.14058065447471216,-0.70296877611776731,1.1107849951686852,0.23517304252695961,-1.2443174220721729,0.029308096425603072,0.9128009459613462,1.7866463895098645,-1.2311177376031952,-0.38829584319270405,0.01404602641160437,-1.3105403561257456,0.53907563306999218,0.91381162585541598,-0.15207379682718014,0.019837597143353716,-0.31226619936039662,0.31106080863551788,0.83161361019000923,0.47712355619084851,-1.0642707190673282,-0.47861010826915423,-0.29801965246248185,0.96603886157765317,-0.53815934169406809,0.99147368540135283,-1.5583902863978663,0.33588545588021368,0.44746316311977813,-2.3613608294747146,0.78796809790778755,0.18291414646624099,-0.2361768508796758,-0.27035402862370239,-0.99191678646705084,0.22093492268326478,1.1132790623134554,-2.184114400189884,1.7004377366439398,0.19929232120005139,-0.36747821641389156,-1.7796356553108299,-0.81289011842465664,-1.9712641070861583,-0.069849067050279795,-1.1326415208759864,-0.088585697436104713,1.1510999842918059,-1.7022917385070948,-0.080260082590556808,0.64421303053276269,-1.2252629933465329,-0.30428469236572731,1.0907750823012488,-2.0348712597552856,0.52733874188378849,-0.30892032094193134,-1.1714145167318961,-0.87353545607298133,1.1757526126401439,-0.69801027763416978,1.0927058603824433,-1.3531354309502934,0.19002338518503142,-0.3264459540743142,1.7099749533457222,2.1130705402127288,-0.75751859962194668,1.1080244422600103,-1.2294912981206743,-0.019435551557100861,-1.1686608581808013,-0.74941987009511779,0.91096604645988122,-1.3936404466211558,-1.3145997105173177,1.0122644729254671,-0.27398588148992797,-2.0784445525922863,-0.25969362660975304,-0.84810035769281722,0.14511769470945338,-0.11650044178548309,-0.77161090750101158,0.68615365186641331,0.17233752697343452,0.50917019856709811,0.094343504060002165,0.6091400959415525,-2.1402300437453738,0.4149676914273257,-1.0158000621056924,1.2339483845461177,-1.3665653576821852,1.1496958375293127,0.42321477370612015,0.13335697239849409,0.19248309582896361,1.4388355850995984,2.552549218999479,-0.33663225548372444,-0.58886135838965203,-0.56357485125997953,0.13277671501469454,1.0900540397029752,-0.27051134328847959,1.4889853449788428,0.80347764147893674,-1.9636560970496317,-0.41182263632730759,-1.0297552920603414,1.4815508017510854,0.71682226061630561,0.030497252322464443,0.5208577818795993,2.1485729502951556,-1.8333071399760175,-0.65093754077550814,-0.34559593104689917,-1.2983333292320416,0.26136121817458663,0.8066244401451953,-0.021699723129137986,0.1660875475820745,-0.076214619850180673,1.4690611720109787,-1.3116038921004149,-1.3230954382619471,-0.026316489178854485,0.14635041550529115,0.83002015579129695,-0.93310920248908813,-0.35692719899267217,0.25199405725816409,-0.67521827200104789,1.1640795559937338,-0.44579239480792865,0.072406413114391929,-1.1650728955866185,-1.3825162361913341,1.5992844720728776,-1.8643835651316478,-0.06378806474153359,-1.0126831968120062,-2.3934709149276387,-0.2884474046155549,0.77763541607049302,0.39686137994896475,-1.0550362302283469,-0.61782522305538079,-0.24241738541838648,-0.80203763712540055,-1.3340212063445511,0.033601323736904089,0.89749269373293339,1.0165236014026431,-0.1960689255393783,-0.15524015182985015,-0.72889801500207874,1.3511839751433301,2.2376850476559644,0.25580916706401219,-0.61989932362597633,2.0504558735683367,-1.4101154702635605,0.011837676393445186,-0.47276954519190367,-0.56110345231053327,-0.38925695099297769,-0.28564299432172208,0.22904165010519753,-0.7316556167004008,-1.1191447178799701,0.072355772555468309,-0.20270706750441214,0.093642361336312457,0.88464549438518114,0.22754112560329134,-0.50092547759185735,0.64892814654787667,1.2217425222802922,-0.77482630685073473,1.7577555988678679,-1.6936655831672347,-0.23970218112163572,0.44286969965375089,-0.41356473745542816,0.47536529212739259,0.26313137473792064,-0.41686574915931135,0.19420725522714472,-1.347155442611923,-0.12456586704723029,0.21744777869309204,1.02178383505241,0.45055808946703518,-1.4728623921759414,0.38384422080665376,0.55657704735816527,0.53231742920609404,1.1971566032149776,0.63609947313668114,-0.11623290623491592,-0.23868532966071576,-2.5209890492485565,-0.40371862033039574,-0.60029589798569749,-0.49687376957510293,-0.36222064724487574,0.52161253439775013,-0.39793661341582248,-0.41802819712955153,0.14951165639860492,0.2073632760767711,0.053491424170932729,0.25837414790301461,-0.71440711017908953,2.2048667654194536,0.90448047884796345,0.41227085835684046,0.6540025942649218,0.30071492138075134,-0.50052796030172908,-0.23044485776350562,0.41366586104055747,0.22364289076248842,-2.1590680445503141,-0.96356731210241986,0.91270934003991522,1.4966100735264758,-0.38038227369364314,0.031935896835352591,-0.48703829589172615,-1.3251136622751185,0.70934287848910815,0.7143772082042259,-1.5741121918663339,-0.39742700941679693,0.57348206416789793,0.24271990014978892,0.70990356462498838,-0.28249119544922924,0.35776269901497443,-0.66599084030883571,0.053730732998497517,-0.95953426557450705,-0.70771958042923855,0.6793257191578963,-0.4012062781327026,-0.92507388531408741,0.33887355564768062,0.6068718197325591,0.95670613605785426,0.59529326986486875,0.52125120445327111,-0.91446708732273452,-0.45461205529039961,0.77269018211153517,-0.70879820531771875,0.76409022675163241,0.92606309118448205,-0.53722517443771112,-0.7627273535830813,-0.28258849120312868,0.81259511648763039,-2.5461101115139502,0.14570761279344957,-0.93504366275606277,0.58742602779968955,0.97302862870676243,-0.55102330596939919,-0.15025039183166869,0.24684397540633024,0.05845256915820056,-0.87254331333825508,-0.37470055092497651,-0.61594501052365513,-1.1133703720253252,1.0823304297953218,-0.39022819939047609,1.0633541281133432,-0.40819154376058076,-1.6137475150182892,0.33595689462802331,-0.61325757932540781,-0.21293401945916185,0.052071615854292201,1.2964405759168196,0.88854034604714882,-2.1545469199780163,0.3841331363363355,0.19065654019908176,-0.62978833450104765,0.25659325294185636,-0.97580633169713116,0.79715918346707759,-0.62848054125877562,1.7278738624645031,-0.19622133537016415,-0.39133872989207458,-0.026280795533179288,0.47125482697448418,2.1332095368107082,0.387748946264038,-0.1754671762829963,0.59806962949523035,0.075924989717395391,0.96695493789818876,1.66562945084665,-1.1532666884020435,-1.3794336131936347,1.2259885719577117,-1.293303106150784,-1.6657590586005677,-0.81989163917348451,0.47325270257395036,0.50855234216478629,-0.48014128302265036,0.23524609517700348,2.2431487961964112,1.121927595898764,-0.90441513045740718,1.0970470764898714,0.50546207792220377,0.62129964343299993,-0.94688337958883118,0.41474533821308246,-2.1828134607258667,-1.1959880071803444,-0.59510253260834345,-0.66925655646161786,0.20108341901057969,2.6146410905896129,0.71589639694864171,0.048209226941214857,-0.38507372990571748,-0.78145963643764316,0.5318173888607336,0.68956876046474136,-0.40839950008255521,-0.12675597285683388,1.9871981245576209,0.0042398280726216554,-0.65135818112303956,0.42931183876876694,1.3520048034160375,1.3384427828271592,-0.68601912327780046,1.5579607508638607,0.69887929697709972,-0.90152399366572034,-1.8797721020858895,-1.4418296238106505,-1.2825096817882748,-0.80796954641806029,-0.43421133702310982,-0.65915124593025809,-1.3668968083422974,1.5483530276612678,-2.5517890688228007,-1.0093120049776727,0.50934757140536502,0.72182953806941874,-0.31767450470215014,0.5004349978143362,-0.77278702811700917,0.10269994788811125,-0.74560867688517862,1.0449919722951357,-1.9649039919763664,1.3410905690791253,1.1968160407829584,1.2562181733388489,1.5529856118001595,-2.173186121362277,0.27329132410872586,-1.2373573292017499,-0.84958120785809366,-1.2455433150238202,-0.42695575808826997,0.32388030761481407,0.073550711920801232,-0.68187865660763691,1.0087247014933294,-0.05935557857821297,-0.25350613839572411,1.1693931592746662,0.84101526841473107,1.2711853452080981,1.6400172060068361,0.25083944164722133,-0.0019682500890761483,-3.2287987604126656,-1.0619246572862588,-0.95091526258099679,-0.24664676913692005,-2.4851171043142175,0.58562001352218918,-0.44633097653850895,0.63495068508911268,0.14728735843587745,0.54741799728715645,-0.73749703462899185,-0.19953144393000055,0.90474254051908465,1.1168236325080831,0.84793905106553347,0.791742762823619,-2.5619265641617215,-0.42860627973609061,0.42744621964284424,0.12467286587580012,2.8760731022639745,1.2023700964752313,2.1264488440515823,-0.38311410328363266,1.3110290574866243,-0.75361638347623994,0.95699681183287888,0.068436377891569436,0.1389076517313049,-1.3918382211949578,1.1009379420997931,1.4645661680227331,-0.50505141149840049,0.5681861567556229,1.2168994616475024,0.08982920226918524,1.4616334077301834,-0.10625242594141948,0.8042117715999515,0.22573237513906474,-0.44976486043106217,-0.41566697070738262,0.32582696649695192,-0.54207186734535295,-0.18630539685673295,0.45118279168763953,2.3718678900859742,-0.93026251360965972,1.3421772053614327
2.3352944189073819,-0.48328352576916872,-0.57079267232538855,-1.0231688710465163,-0.98759649103277003,-1.4329647797606664,-1.6383693552573098,0.67085331726190256,-0.0032331150284982636,-0.71558828097489502,0.47773800385507326,-0.79486431660365076,-1.3578298887687177,-0.71573307246040174,1.7361100816344499,0.10878660877941429,-0.027836156133273195,1.1648298836019166,0.45154402555193895,0.10166223879989486,-0.53923278800558228,-0.43683537641702108,1.0810181193573112,-1.205313077816617,0.53213768848981224,-0.43961760114737386,-0.16230990570607556,0.29778249871140083,0.49139351317326324,2.39293693959192,-1.6522866719756186,-0.70366819176088946,-1.5464746073761926,0.56012804977246922,2.4043416025664697,-1.6161103441639209,-1.3226745178905779,-0.31011833309943765,-1.2174122205363989,-0.022207055931467712,-1.2142865587462131,-2.0793524315962104,-1.5572111001822697,0.18528357981108823,1.3557702014282074,1.5942322119163246,1.0520127196745677,0.86439371948418431,0.30587650581135378,-1.2705617135670908,-2.7668122609849015,1.755748978683493,-1.6062525471269529,1.0951061719297672,-1.2048538088897327,1.2419936870497246,0.90440520209327457,-1.1840030454562143,-0.17440347827381564,-0.61766030846372244,-0.76194904516735007,1.2489097822715798,-0.51556556648057139,1.8350880950801798,-0.8829199995602014,0.61667046076609078,-0.21471612719081357,-1.8652887165924399,-0.12719441254629019,-0.28299443259491192,-0.89210978389240758,-0.1553613889077039,1.3726642329155287,1.3990193451233079,-0.072288904279275257,-0.11963781375511122,0.32542368860011861,1.3679959543568732,1.7347388855316941,1.8216977115552759,0.33407887796566227,0.26683360790505362,0.70067401464413304,0.41892199691372994,-1.2960610940590902,-0.55132371685923098,-0.70434698935206652,-1.1742321504719362,0.24955387784554234,-0.20782898700682467,0.46805945469626464,0.72834636442531708,-0.84800285989933633,0.76446045879091551,-1.7027457494456482,0.046199850110805574,0.71234066628607728,-1.3080014548014667,-0.58705961406649831,1.322504758541883,0.26709439680940206,0.23522205742899996,-0.090753337932130737,0.20703150403097809,-1.5928823560503476,-0.35777324188141685,1.4416274823137576,0.36309080781295561,0.35511115122139453,-1.1871047712848131,-1.5917032432473055,0.71772585479246565,1.5415695247381669,0.035254019297612273,-0.45919809344200108,0.76867232284747256,-0.30108561516983134,0.92294504443265524,0.38856732681165151,0.47914843000801349,-0.23709231715950779,0.44612479425541252,-0.32179578589377339,0.11680127523432693,-0.26569940448459561,1.7828496977936124,-0.57649972799296589,-1.182709730810072,0.022198650485060298,-0.29011064453982638,0.87561406831639921,0.50181177778340236,-2.0527727905099571,-0.009636692100798077,-0.78145976132774142,-0.67234118844587909,0.50684518348199081,0.3046564913971469,-0.14290731023137004,0.62305870379355788,-2.0679146849573327,0.18298816188706291,-0.82496064721654516,-1.0259553713900063,0.72239441022837836,-0.93813933190395404,-1.1051244569898286,-0.10904998276157922,-0.66131175680648324,-0.42342675579060968,-0.65480736164168729,0.04989874027839631,-0.26904908597723304,0.6970448120110585,-0.57839652202213665,1.3436962210451977,-0.95758200321894271,-1.0044971444773634,-1.1989095689501936,1.2309490596220247,-1.5963793128969781,1.3152660501341071,-0.23108500829828307,-0.18332600312156189,1.4722647106355276,0.51074220209896959,-1.6961335281960372,-2.0040753012067105,0.72296460190101541,-1.3591933181405225,1.879578142299932,0.20196762117129644,1.2482831293544274,-0.23607371191732399,0.62657092802992287,0.39426212113140346,1.5897842816116698,-0.28881752574962888,-0.12903855682217705,0.22456903105619053,0.18457575269630233,-1.7111850526302375,-1.4256455167792528,0.34256240471705707,-0.10158891506710073,0.3299077230080158,-1.1704982167540932,0.079076220303795589,0.94101338805844847,1.4033180239655374,-0.68143506589403924,-0.35247288739713389,1.2244574916532898,-0.74818008634985167,-0.042226780503255297,-0.5751716828215323,-0.17238137101751835,-0.40348527856991867,-1.3326821400031845,-1.410987385855216,-0.89875905473287254,0.26314306546072241,-0.035372380789932815,-1.0132081054302267,-0.41236218686484044,-0.44697607694949987,-0.83011806127210808,-0.24425325071922513,-0.48517128479584165,0.1860052212301436,0.96991210704804742,2.7299369481837981,-0.40674041146794832,-1.3622451670065083,-0.24946582937349668,-0.31173497670246741,-1.0600200621823705,1.1957121133207633,0.50768512550398803,-1.7642095618104323,-0.82847692063701639,-0.45386209013112855,-1.2448721798688731,-0.89879968697759727,-0.55833841117497995,-0.0005069365353216911,-0.59808519993199272,0.57207612284920673,-0.39852226834163079,-0.14190463364550754,-0.39069225240711269,0.92908255497730208,-0.28752501745706127,0.010212306980872429,0.47317047740746709,1.5389868017805279,-0.40864228664045926,0.29458388433807864,0.96627862523452013,1.3744940693191594,1.0031149488261866,0.60335097911438895,0.047558683173187392,-1.0309897278272757,2.5642542239986419,0.71668533037950444,-0.44448214900192662,-1.3780721779351326,0.32903881125780327,1.2753137892283668,1.4145760539491907,-0.54417176360849573,0.05507785937293401,0.078675353182275087,0.36514570979891342,-0.034547877424015792,0.030905980799282553,-0.64004563653018653,-0.91555777664802551,-0.56351454835220749,0.44529957802892511,0.61916893084118307,0.60808309792263493,-1.1489915381576692,-0.40294668250386967,1.2512733953624453,-0.84726381368169323,2.249881147996752,0.60012125609924272,0.34892722673117083,-0.28068975359620085,-1.3270678501268434,0.21805018302549078,1.8460011886523868,0.51375173546741371,-0.44940771279199149,-2.4931388331628819,0.23670686834980242,0.83096921487411901,-0.0040062967297100904,0.9246173768447038,1.2699209134547911,0.7734169746799151,0.51999849839397239,-0.8502252864293377,0.76596380757151716,0.48218342581103479,2.0819195675002913,1.5029557625552636,-0.86787382808425251,0.53014434350331241,0.98249744952581208,0.11192690365743412,-0.50747223427366328,-0.98198047793378673,0.98673115406751954,-0.91727955900531144,0.13955640911322403,0.23953060149735794,-0.31882878809701592,-2.0488018639003198,-0.68790211876358343,0.26103989775636438,-1.3531414228421368,-0.64330162079288933,0.61998504462598136,-0.071563807626921105,0.15547348052847115,-0.28726753498050145,0.78621634313996724,0.95314726448303233,-0.7232771682468776,0.4229306937570711,2.0983342141018806,-1.1790309521272826,-0.84459011833001785,1.2759477586404537,-1.8184367501167795,-1.0221049605112851,-1.0170793709275439,0.51289272655461704,1.0484134355811519,-0.097238709888662428,0.44149944866476687,1.8902546901904014,-0.63221313556778369,-0.52624808539683188,-0.26027554645226492,0.9207670295340038,0.061823305618213469,-1.9794200475739718,0.075451245464171576,-1.2494906704338931,0.041299572410399533,1.2906138257521518,-0.33816318035115411,-0.73992355562277634,0.24870678649614214,-1.5840656418363774,0.13187772213269602,0.16465196058110643,0.05783504161884203,0.49717798024843657,0.023006852632906069,-0.35438614424456483,0.17901824437152267,-0.77137508335610772,0.57610053672837969,-1.9689355488758395,-0.0064843218342292043,-1.2303742422535251,-0.46293627266997578,-0.43561790563980179,-1.4529927214500846,-0.78429148777919822,0.8618140869411649,1.366102354470522,-1.6992533442704887,0.021164646181272447,0.79472469391257661,0.73024259061624408,0.92311098917802337,0.80781525535564136,1.080434069651844,-0.61636186086795819,-0.32908075382847868,0.76234985298881852,-0.031099751488153093,-0.16297123071273664,0.39939096791909112,-0.84053228851678663,-1.5147645439136357,0.077239275549371503,-0.53386418294481108,-0.96064269683904313,0.20439314624943733,0.77396411460194958,-0.41131031124506739,-0.033087460423200543,0.43789823205240119,0.17794345060197003,0.92873006120235224,1.1339030759355029,-2.9391044831949071,-1.3732338399513404,0.4354039425042952,0.81604655928545,0.054286261603836573,-0.90809670659637654,1.5080502916276419,0.64786881950190578,-0.59367850042275949,0.11515551380737778,0.58598937245491989,0.57691415362781284,-1.835357758288249,-1.3395923654135937,0.016008512511358791,0.12532023940680093,0.24753074445184228,-0.48717077086018806,-2.2211957916407603,0.063575473569876473,0.51492006785620426,-0.074640153155498351,0.91685558936267197,-0.84152045029892775,0.86976079142845308,1.0472059838181353,0.68479854284591868,1.5407414875916339,-0.52597526871157385,-1.5701415656482678,0.50832691431777566,1.0770133421191848,-0.48854352260188039,0.45957250116418641,0.35746575989448076,-0.73750332359531545,1.4678183115435661,2.5801619771456736,-0.48602079555994332,-0.23899281348458523,0.1515175419541856,2.0596907304865297,-0.0068230383765153649,-1.7500839118820195,0.85540111250611561,-0.78570907205619722,-0.0049159642637834153,-1.6126326345536233,1.9291165617663244,-1.7291427213558006,-1.7760184839110029,0.36074189114054384,-0.31082144821494262,0.045215156522727659,0.12868939838038074,-1.5172312148669416,-1.2391135906161022,-1.6600921957650145,-0.067729575129308217,0.45911508030419224,-0.18868941960784916,-0.2916161767429617,0.49861326839909986,0.2513187483059523,-0.87121300636373178,-0.94894739615283086,0.61056325005910139,-0.90584086359838545,-0.27247107007372573,-0.33819309871219649,-2.7155417270472531,0.56163177214004179,1.5791555868055196,1.5535446137546916,-1.1525977084701249,-0.3324759188953012,-0.89905435152886903,0.6456626929594711,-1.0307418058098705,-1.3227203648596193,0.96466181224345182,-0.55741215343944672,-0.24326911768613413,0.36926855584825863,-0.26376478875197823,0.82052852196931914,1.0429795928482226,-0.99910684385234472,-1.0193505727916377,0.16075101486661647,-1.2410878597648143,0.12156174237618896,-1.203268785392074,1.419895595206796,0.44444227632623395,-0.41911608185732313,-0.89561001793420514,-0.70528475896472986,-0.73614678926619337,0.22782752729656486,-0.72346908220729522,-1.7885411359097685,0.67687367422768607,-0.93884510722142189,0.24174115848911687,-0.048769473687026811,-0.60797141682546785,0.20005215605119406,-0.29644407333791883,0.19077392033107574,-0.16504123660403813,-0.41881745121169811,0.5745195910382791,0.65477746971858508,1.3590826834406038,-0.36775105621578152,1.8502910567564321
-1.0082213474317299,0.23661532073607744,0.80893434793894725,0.73794427168763266,0.83499230854597706,0.45368786514718584,0.25851174500892238,-1.2386601250887905,-1.005624031672524,-2.0799705770848145,-0.19926132712113251,-0.19473609618945478,-0.63987087990412028,-1.5483386170872286,0.60916007358697255,-1.0584743181212759,0.59844135444070379,0.87810420427341185,-0.59809664903467086,-0.033198556707957232,0.82369305643875357,-0.07545635449932267,1.6781865508121359,-0.93642402047561413,0.67099152676315599,0.48207141673035708,0.06908191521882473,0.24671396112168098,-0.1419400315653383,0.58177406860185943,-0.28196400175919378,-1.3158590624629376,0.17226068381942342,-1.209740078526844,-0.95857025842453136,-0.058870421222524151,-1.0765528096298653,-0.43683199213877688,0.088187627980276975,1.3924328573238625,-1.2884215208830665,-0.53127034986495414,0.43087724176750253,-2.766783210624054,-0.77938487227405095,-0.065521428578762531,-0.84814068017856337,-1.6838489482957124,2.1165512514275595,0.52643342706422636,0.043484829327194226,-0.68679492526557728,0.44954365192295181,-0.86651909466683952,2.4744058195435019,2.4690393420840362,0.93374397264022713,0.93421472610459688,1.3560184533072437,0.27012541906726367,-1.0558220125765265,0.66358231809623092,0.13738358457245761,0.67193852441672575,0.27291083999625232,0.84659967455490326,0.24277730990814775,0.091931920685592305,-0.39962810326327891,-0.95760886982365934,-0.23598431672870582,-1.1735541322073555,0.44130231474020237,-0.7150587220572675,0.37468149152232322,0.96757002907692813,1.0901006575676193,0.24654811400146903,-0.6714374699913398,1.3150006227851012,0.48682912837827019,-1.6132320310835406,-0.36133876735887438,-0.035918596721733753,2.0599206060591366,-1.5428939146377283,0.2816013722438046,-0.017156907612596823,0.23597873454865831,1.3735952334486421,0.83577556945711262,0.86163065309272258,-0.18125736994195768,-0.74185764357745387,0.74424041145509212,-0.047865008802048026,0.64635612972567846,-0.91953783223059904,-0.50488304822025665,0.010654788442280723,-0.86470525566203116,1.7419333594733819,2.2589763145880521,-0.85645590370423819,-1.2557336757606901,-0.33761977987896252,-1.0009230200678585,0.65016011447389288,0.32081626945154224,2.0958695140033665,0.14897185380215863,0.11660579847499432,1.4135777629484114,-0.42564083008244891,-1.55475682704624,0.97514869621402234,0.19087006191488129,-1.1228576848531815,0.78239428817154466,0.89617119023968206,-0.20763937028975277,0.24662816574280277,0.57964008462854966,0.11307799077005729,-1.832302336899406,-0.63392286693917688,1.1039849051901161,-0.93372111965847537,0.30444094575456554,-1.3393005723281874,-1.5427359917071872,0.61001516931892974,1.5244940303444701,1.1258390321696556,0.68327824777682733,-0.096836819503934982,-0.14411588331218628,-0.18670065695407634,-2.1223920814673698,0.015787043869631798,-3.4280795576426311,-0.197736040638609,-0.74479381093879116,0.24138892997777089,0.27148982035207603,0.97051503298339781,1.8471291498042985,2.2837018758092245,-0.52146330290799381,0.19420458528182558,1.5558392049491934,1.9090012175794222,-0.73510672740397476,-0.033683331632056134,-0.83683709183437938,-1.0097653126900279,2.0247428897988877,-0.1564404894108565,-0.84996884924904137,-0.98754502186092485,0.21401704599038551,-0.12979653650124537,1.7997262300654202,1.0621418096837871,-2.1722820515959032,0.056419764522438,0.060399991185728127,-0.12536791979458173,-0.14497957865135325,-0.95771802872028133,-1.5863665824673747,0.22308164787992207,0.89666154677899668,-0.052691208257522902,-0.64034475732584817,-2.9070308263556144,-1.0715087637606302,-0.73162792747268157,-0.38834535266563336,0.72737248878302851,0.66680830223772691,-1.0760901961247613,1.5840911805511555,0.31698062361620405,0.40156015972845654,-1.6373101135804289,0.46728187153945849,-0.85729999807310242,-1.6346942308999399,0.91442800147558478,-2.1263875252081417,-0.76093079094498672,-0.96593234572951536,-0.068928907025838745,1.9093237485978709,-0.12455597668859662,-1.1458217362941723,2.6493066787092467,-0.15547348673467745,1.2373767057064247,0.28019330550438282,0.55635935436724104,-1.4702333085760904,-1.524784815360049,-0.2039984380730625,1.4335516849599785,-0.98550171077382132,2.4070767279084948,-1.0663556937053649,0.53899678242423876,0.19455635812537311,-1.4912819236165114,-1.1490961236468065,0.68707196916939628,1.5012885980285338,0.86113744976584727,-1.8069412001189376,0.70989426894712759,-1.3432097382536552,0.24335585723154185,0.95880608577321624,0.23158296773064732,1.1437279964475058,0.48031475125611822,-0.69493142826505017,-0.23352869991448019,-0.82115530458073882,0.10135248971433056,-1.1006393771848262,0.96794648261196226,-1.4346286904761882,0.65907246423877086,1.3000134968993398,0.1885864319953848,1.5215975928341625,-0.67693069067615541,0.59533060885258993,0.81105962320322811,0.3439520434398976,-1.7200572701986925,-0.12248923879178626,0.18558585610817496,0.33768981895940114,-1.3526192355797086,0.20655214338011785,-0.48526640403024085,-0.39635132227469461,0.66780493012609565,-1.190583714518618,0.21724978373901133,0.3381682989322583,1.1639191099944228,-0.57960269458780589,0.97255218514613417,0.84384807653391924,0.040630293063331553,0.41634528089208073,0.24599486996303557,0.8262838311701034,0.14407285505463391,-1.7125339072516392,0.22887654175579975,-1.6183164347212786,1.440450762459746,-0.59082523786840468,0.73985881120544361,-1.847694721071512,-0.53636160745778649,0.38369111259077848,1.5921403078275189,-1.8506671252138314,0.18836047837957465,0.12473820607085725,-0.26419449183338312,-0.13011684991110728,-0.86755275869614323,-0.67439517925728876,-0.58862222249099516,0.7805147250529868,0.061351764913977147,0.34128734725473392,-0.84647873155829567,1.1791627746730369,0.26110469165645317,-1.5754832772814269,0.37450783260087911,-1.3583472553024449,0.37977238490744741,-0.37073164105721351,0.94354374347269754,0.64698235225537792,-1.0736484957877412,1.1179305981518386,-0.014199999534460226,-0.45907978777521591,-0.73961730642301771,-1.3061549545487683,-1.4108493559299737,0.0012788057804437854,-2.0040527656986988,0.79845436031994343,0.59335577390867222,1.5329723107630675,1.370734445032503,-1.0485683876657761,-0.80435864108866528,-0.065507126256077436,-2.180543737087973,-1.4017144572882985,-0.34997863196304452,-1.4421450215699105,-0.76596426862305966,-0.52432532432984169,0.74549015209032565,-0.16358096888135895,-0.2253247692585236,0.2991185600454162,-0.70133331226499696,-0.097075606229261271,-0.015014688408510946,0.96782098935366367,2.3522404285899117,0.11211913895676694,0.8920021076041037,0.098542187677089513,-0.6576744391973508,0.31067335748663888,0.45494578529274715,1.4343479158872443,-0.70968436436852123,1.1250871131935292,-0.97363178315141941,-1.3794609643865843,0.14826913359322672,-0.2278704023765043,0.083836372149134489,-1.0682310302722711,-0.49019363115109005,0.03901049172262927,0.40202488729733815,2.4412175338407534,-0.037277414531789899,1.5039169307415734,-1.7547524323749844,1.4070091430204124,-1.1458425599044946,-0.86627650174374948,-0.014681313806998912,-1.1648549968916899,0.64764110959791388,0.52519660100570975,0.56164424742660835,0.90504101154677286,1.6703694008702221,0.83721765691842798,1.6300880842218879,-2.4627659496292673,1.4819682039511894,-2.5977252162430404,-0.83775892773573524,0.015601985362987821,-2.2157449555634403,0.70178240804806835,-0.59313244044018743,0.13217088976834104,0.28691234867289817,0.10935341290193579,-0.10761816700314203,2.0549662624619724,-0.30794181032345741,-0.0080368255648913881,-0.034471635898529987,-1.6596977332988747,-1.3608261638649877,0.20204569691094729,-1.5590300737304805,-1.0978039594373337,-1.5454244576919107,0.88053576215666107,-0.32736083455637238,0.45250436457935062,-1.2227662656584024,-0.75426137791006787,-0.46358845576590768,-0.26348711400001412,-1.1013043212802818,-0.16691591863647356,-0.6114221351897039,0.38987978565576548,-0.15999882784718106,-1.252741955030402,-2.4976435779815924,-0.10241460405213855,0.93508065104186933,0.57366323180336876,-0.57648598035419607,-1.9074734105532423,1.8384394826874979,-0.012924538905785493,-0.019330210258078132,-0.81877488788773756,-1.0968109446109786,-0.41760677658938455,-0.5443194487097871,0.1158812404426704,-1.2695230855370923,-2.0601252760652753,-0.053128480866013794,1.161734338654081,-0.49047679223794416,-0.36293198093081852,-0.8571035416271553,0.10868782012497392,0.18755781240077507,2.6188785238477204,0.041838400651404352,-1.0467639718961455,-1.0141817044688526,-0.41802871706322431,-0.41865011596880164,-0.19571899427389974,1.3920551770593685,-0.29053385280760596,0.76310324721972955,2.1175749250498468,1.5257531289771411,-0.094890080878122549,1.719553020018068,0.30610477553945709,0.22150627081540308,-1.728970412012599,-0.19372617497177941,-0.77802096214969063,-0.78821069166569591,1.1001938700981371,1.1037740429961616,-0.603832749966562,0.02331803795304889,1.2518030740108863,-0.46249880992841957,1.5211994077427911,-0.27669074088097484,0.57348102375489052,0.9222210622759196,0.17139456950249429,-0.22362763379586606,0.35568045161128087,-0.69330444142516967,0.74396148198525869,1.3052212296687846,-0.66542143178709645,-0.66029891250764083,-1.2847882783087947,0.83509083139973728,1.6820352586259155,0.95931177326854444,-1.1733822865870354,0.45134219655964392,0.010342770534718234,0.093426748157814987,-1.1659171404257733,0.45997645188446235,0.11116051967118099,-0.066393464349898387,0.03621868525721552,-0.21134697293488663,0.79348547745501052,2.4289768958840958,0.5560554719365538,-0.47925928795294009,0.82246432366173106,-1.0650939251582376,-0.35671794177006988,-1.659498523243168,0.10744671870604872,-0.6221704821655375,0.37856398568032845,0.68493473300982055,-0.31565304718976245,0.92246763515491281,-0.80657883266130248,-0.28924328070907979,-1.4804894313972561,-0.23804124448869909,-1.5701015346754064,0.86718361594018611,0.12919769921822044,0.65326769721850297,0.095551439579277114,-0.9463056363371587,2.0039758530685958,-0.67185550900676683,-0.14185616842109669,-2.1524566231363607,-1.2464196932563223,1.7263603837588231,1.0183266799762261,0.61815824280264564,-1.0555753732316924,0.56805275262767974
