-0.55658186109899133,-1.9203875580922467,0.90029969839454971,-0.75813250440687008,-1.4949584852290199,1.0548786384476725,-0.81695843645954491,-0.91247958352313341,-1.5115632881423693,-0.72657418795763951,0.098449694842460661,1.4388717379206726,-0.51079912600547561,-1.1402527339114266,0.73757927656356281,-1.5418603523023657,0.63614313580794124,0.7021808812627387,0.22918810586851257,1.2969259285042241,-1.6231894855887494,-0.61737629474064526,-0.030878548393755742,-1.0375006572668095,0.91122292527015469,-1.3793221025014262,0.91637711569034452,0.94416840087068943,1.0223405396861338,0.70710018565489152,0.55182874366554979,0.18824737675838607,-1.1274056949131015,-1.8402726850374551,-1.1228184955161389,-0.28980433077464568,-0.27236626302220168,1.1053955222340506,0.29342567780729484,-0.32522541248669634,-0.21845557727483264,-1.1025783862416672,1.3590032142256123,0.78759643609104191,1.1717596111453552,0.0081414971618458971,1.6319118626378903,-0.51068377675157028,1.3677667577933941,-0.58659268498577011,2.9110257869115244,0.77950077962946385,-2.2211438180778704,1.2062765356870921,-0.0044086187187194047,-0.13839390483783939,-1.7542500382105093,-1.0128727911609248,1.0036501814500374,-0.18778129866365006,1.238045859125829,0.45338303279542957,0.014056409516066582,-0.50746558953695131,1.2120079321827204,-1.082460760188138,-0.58476525221334019,0.46765495199495744,0.18349677108740398,1.3140601150908326,0.47920085301859966,1.0557300142749155,0.70128234254809441,-0.82563601637758433,-0.10193864777571952,-0.19976226884096868,0.038131666269721559,0.56126281214323304,-0.59834395238715454,-1.1359584415172337,0.48254538733549779,1.4458317019918678,0.68804702312636745,0.22379350424830513,0.094971633472439421,-0.21953346786799835,1.2799717303635527,-0.29901027669503266,-0.38019367283718464,-1.3653456171940046,-1.2043907528804898,0.9143909666551826,0.73264327589545175,1.7275008968115744,-1.613892382839087,-0.35014079754309874,1.4605649884491783,0.10820662453455489,-0.1631161714307946,-2.040139445293589,2.2304564681520227,1.0027826905377624,2.1964131977631074,0.15714257230470136,1.0876821700183612,-1.282310937212136,0.87001494277806846,0.66764410959983056,1.0249593614322312,-1.0048675591557763,0.89502045050864876,0.972111458266675,-0.95521530087537865,-1.9762675571094643,-1.8072974784210705,1.8340853301773128,1.7566836331492288,-2.4240217109079278,0.44413091113139608,1.2157199904698255,-0.3232607496773367,-0.29522037860204259,0.9948646977314638,0.77208888344277904,0.80541966293607425,-0.83902616834435118,-0.15368662454713902,2.5855753642913561,0.12110154515601934,-0.023969090888962052,-0.42343643240683804,0.64276886442908487,-0.74182611403447785,1.0135949434585763,-1.7466816644984926,-0.56517993531761135,1.4441411507955513,-0.064615181221217316,-2.0055598830711725,-2.2996961297070433,-0.60949916155151473,-0.80992571398879276,0.46024697845295887,0.13991274483059485,-1.3799749336185245,0.58787687844169478,-0.2734558960140539,0.79724320898278955,-0.85376028584517716,1.0789347458634804,-0.68088367865728594,0.82146917856054535,-1.7898665266570075,0.91869619169515693,-0.24278830537164703,-0.22955014225345247,-0.9584537201841602,-1.1167308411240064,0.66333655728574159,0.60689582552618693,1.2363156494908845,1.1813178429136617,-1.8239379027373528,0.14423839290607579,0.42970852443131158,-0.42623738880829226,0.10789392840724374,0.099446290803861248,-0.81567351240544195,0.60410651466332443,-1.4562903520855375,-0.005000210763548456,0.81959777562604763,1.1449950127307922,0.35196423919400976,-0.2152594223274813,-2.0650105402177088,-0.6644791662194931,-0.61190975369223177,-1.3081203637906229,-1.8463600740142581,1.1672626396810417,-1.3399101005283434,-0.53913192100924967,-1.2484901459125088,-0.17257322157795324,1.2856162979482655,-0.46968924324727346,-1.2426913807088686,-0.50104367075919221,0.011489825117786023,-1.7948596204839493,-0.20167895211301981,-0.46911585903806097,0.034752545095327256,-0.91065669391886783,0.45330096479401932,0.25225008239027813,-0.7177769731836845,-0.25971885204909517,0.022272455705004659,0.56843777757929026,-2.055074377725544,-2.2499590310653881,-0.12429906268645927,1.3532585375034805,0.57739308497541375,-0.27284690764584774,-0.59918355140298896,0.64751684966372458,-0.0080148174097563543,-0.12513795502000005,-0.69150416093678313,-1.0593337855701668,0.21451757469132332,1.2842916440034915,0.54991431651185907,-0.20383552181534814,0.4937171422589926,-0.0076192240747860757,-0.49015858940677437,0.93555862601047268,-0.50264073240006202,0.41047759895701791,-2.1337452513040565,0.31365757561140872,-1.4372209717333251,0.62022320779065354,-1.9591891842497582,-0.55873599670992313,-2.598834943134869,0.79075137597163703,-0.078767316047621883,0.24690259171391438,2.4204788926480729,0.58943551991318177,-0.9209594313748839,-1.1666556978591656,0.96127209942380409,0.67946817016498917,0.10468077814754541,1.0691735850209059,0.79414984363115038,-0.25931497046021612,-1.5603017054106467,1.8438655301153875,-0.27347332867663293,-0.74589582314095371,2.1946462238796856,0.80604418527276467,1.154555502049766,0.95190448260568039,-0.31019988487430322,-1.9889006722762144,1.5341432741202332,-0.7043788427166473,-2.1443929395265986,-1.1083382537992172,1.995937257126408,-0.99011354601204404,-0.99316058309840061,-0.66275198689389447,-2.2533665567700591,0.80330354286848349,0.35781537739869446,1.3636776641333801,1.485499406569065,-0.17879678004457747,0.56398826250669831,-0.42609561648592603,0.38592083212953049,-0.95542818580663869,-0.70768784024678977,0.9576948173166796,0.67269382082248541,-0.12946287269211229,2.1500181377571002,1.1073580062370301,0.050796177238346979,-1.3178183572725946,1.6378403654251472,-0.80125540046857013,-2.061852488394079,-0.71372894894035943,-0.63855220151951209,-0.47277843191649976,1.4812662640893721,0.65448102717572976,1.5165144050142882,1.5876338737837052,-0.36779819306260708,0.72875401496872871,0.63148677916034257,0.90660137910169969,-0.090186851101606416,-0.35194981091578009,-0.36565196581660864,2.9145279291094428,-0.18919288203515119,-1.6248267030291021,0.47208434126400212,-0.68828978081970504,-0.32014790709049284,0.10308903277568593,1.595413975721184,1.2514439168863429,0.23874963829372378,0.3190532621505216,-0.31461459882136589,-0.61724031660493905,-0.50847560685085524,-0.64114599294070274,-0.25540980051352358,0.25313119725047006,0.26218547748332571,-1.1523884308966545,1.2253410437297558,0.12111187178096114,-0.045206882238797319,1.6286821842901824,-2.0070774474613442,-0.88737006394527129,-1.2930726937320656,0.14765214169263355,-0.67623152694432864,0.7014832770238878,0.025824578170327978,0.58027291800401781,-0.058340284388969287,-1.040025263114752,0.88990968542410476,-0.66563159435605623,0.14211509982301676,0.18494950137288999,1.4515466176608398,0.46650190602090119,0.99175693858544911,1.6904632676956239,-0.85659501608393462,0.46496545129279415,-0.68533821655794491,-1.424960465290205,0.76137696028150725,-0.12982760835648044,0.80788158991454384,-0.59911742995183581,-0.023470394362470167,0.050025297263235069,-0.76490883146989319,-1.227415154148237,0.38563548926667812,1.0664961560019017,-0.73625075025936704,0.77597399462004701,1.0480446737946634,-1.7727327228396865,-1.0091431905164869,2.4907156754301143,-0.18333215803879443,1.0243163480209763,1.1087964341162519,0.045351134528277791,-0.65953779195444751,-1.4639207237639418,0.0663151187043058,0.43430285914627847,0.45266609163303551,-0.35776805694079344,-0.034829224529822372,0.17940754902201173,-0.29407085485953172,-0.92502712130686104,1.4277644315562588,0.94012128288180241,-1.0851941038506059,1.1456254151241998,0.827207736557663,-0.44439397512005069,0.88103677111108558,1.1074946073160907,0.23268974020557037,-0.072274457712232162,-0.16599548750555387,-0.20683732818370623,2.0568368680246212,-1.0947111399506757,-0.362378439399278,0.065523998395297156,-0.56503669608522278,1.0699454536349267,0.51207313512575625,-0.94130525898934003,0.67538753702524046,0.10897114486633601,-0.59281380470080336,1.0647643322374203,-0.84177361730616951,-0.7521759320132485,-0.77865016265645826,-0.050996803014094198,0.051163763491467326,-0.20462752654922106,0.096419730693893077,0.50252302498310242,0.46761675873429315,-0.30197832882878245,-0.12878715038393831,0.76967458242884002,-0.35315077264791561,-0.057055619587998013,1.0671633745965716,-1.1047100824612295,-0.027442713497759841,0.93793009704313257,0.013962671024769217,0.52612744420042301,-0.72408190528381233,-2.4736474364496814,1.614585553831873,-1.5471192089678192,0.32153918156178957,1.1775576429455814,0.2284990595747424,0.63785944711810549,1.4774688589298459,-1.5821204583266144,-0.037017740308656434,-2.1995477091225024,-0.50642748842378726,-0.2333117155022969,0.10130339289701848,-0.74533814316161962,0.31572059714185075,0.63356965604160154,0.99053331819880752,-0.0093979904673407184,1.284601359183458,0.35386259033331452,1.0701759455600781,0.69099620934733685,0.2331754072151131,-0.20448665081041009,0.35434043946717697,-0.54673524636448989,-0.68531907547028525,1.8915031926488883,-0.27046882986195581,-0.27776419770662264,1.6543689000429376,0.037934068888134699,1.2112088449776603,1.2604843734042528,-0.70279140658500261,-0.37322008982906629,-0.3595071731604616,0.23870502475706451,-0.63845790113228207,-1.3222688461731607,0.2273433140814827,1.0329927313072793,0.89590951835400434,-1.5196697393832554,0.73816878950106213,0.28374091103535237,0.95359470761563658,0.59014952223431094,0.71690542074788821,-0.3029650639031895,0.94121285640275487,-1.0795199174266874,1.5392994842325165,-0.67607393216987,-0.33909260931279139,-0.30315571792135287,-0.56083286322860793,0.50403228047311999,0.95531766725955414,-0.038317822559673823,0.70530735618347096,0.8832653928815648,0.76073134091066652,-0.12941747595244657,1.2862418438265555,-1.0062791312942658,-1.9309686563588495,0.167643695527948,0.25955635328706989,-0.24900963620990124,1.5224673957434367,0.53960477733785595,0.35218008573845117,0.24776418899533059,-1.7630044774605171,-0.68244583813348536,-1.6094053370830554,-0.83483865174642991,-2.2849256078644573,-0.29395256338904735,2.0213548853244929,-0.32648487408736343,-0.17279782357037071,-0.13052789417725041,-0.84464820346163771,-0.75502770708377487,-2.1716353823793808,0.26647978784033532,1.9488821967371568,-0.4069965993429347,0.06868914990781276,-1.7072842183378187,-0.11162476771534791,0.36375406440558972,-0.74823472046982431,-0.21042277592455122,1.0021727830200979,1.4146279647782181,0.67319454299476911,-1.5886855466990202,-0.1327661334117719,-1.2587489898287045,0.26982869869053377,-1.3232972368636475,0.020232605354918113,-0.49768637944465594,-0.52763092705420589,-2.1397130476377186,0.13340977002703397,0.34757080413005359,0.17644958857714738,0.22497548645999421,-0.12630791253610213,0.46887795181782327,-0.68780145255214298,0.50376697728304165,-1.4277534752524301,-0.28445930203185582,2.1882988960697913,-0.54344934404201317,0.55630068255390586,-0.030778764852906218,1.4275684057730038,0.35167614010829717,-0.12404119665448866,-1.5358789999079585,0.48133778988484099,-0.011580218026496903,0.71909376816212922,1.3545196143146521,0.26965168587427502,0.76020321247716627,-0.9346556661843286,0.56792038379393173,0.27183498624946589,-0.64591206528593936,0.69462652934097535,0.3431685912809942,-0.72566535306500202,-1.96002964026074,0.23574709198408833,2.1161961012734247,0.77158860439255461,-0.56031230160469259,0.45878854214359593,2.2827687102634102,-0.48356122824132763,0.83845993637417104,0.18866838145272127,0.51959161323961922,0.25992272045754622,0.64705041445490741,0.56216613025481199,-0.27814880687475163,0.65117211682016474,-0.38429151275835111,0.92412453984113418,-0.7967402903812637,-2.3636406451926808,-0.087891866202956789,-1.6190454652338542,-0.81406591636001913,2.1119231651538377,-0.99645157776410798,0.77699890455330023,1.5247064559221806,-0.31017457019041222,-0.83294934378895669,1.0773146156981042,0.86409477165476101,-0.76154500088347821,-1.3319360959462478,-0.91286974602931115,0.27698764528615427,0.64810884696861049,-0.73063294867647999,-2.1193795888314884,-0.39937710204618188,-1.1777692939791995,-1.1174372563673636,1.0109119950347421,1.1322361319024297,-0.3637271784516411,-0.99274465561985881,-0.49500415941824516,-0.0086984868125774013,0.187978208296251,-1.1356878197740368,1.2827221574604939,-0.78276320938622912,-0.63600112011352838,0.062424451178892261,0.41767734652916499,-0.68218079056669223,0.0077833882365205588,0.8662764714714809,-1.9836340082011275,0.40303464523680382,-0.18138451020780924,-0.24213768221130949,0.01846805461931493,0.20424610519749034,1.6579243366832419,0.17859284649531545,-0.26277354553201721,-1.1973218978194082,-0.046378717233233752,-0.30181934968220037,0.54681316680395198,1.200271947093555,-0.067026283833002964,-0.62235382088010383,-0.01996535105756081,-1.6860687881393297,-1.1009769599864256,0.26138499712238183,0.067165620812477289,0.70095915244899543,-0.61222917038840152,1.3253250568748989,-0.11010998431569796,0.47994192020351817,1.189573005256787,-0.048666574707115051,0.84422678337140289,-0.045588000146554244,-0.81668382069852197,-1.083226289541168,0.55386506134600266,-1.3616286280970862,-0.16454982932672627,1.1171057202221153,0.26364818817945646,0.36461822992073833,1.3442919144551915,1.120025513009856,-2.2836392045914966,-0.096609578585105702,0.7926389229696168,0.31124741737307765,1.2052112956532033,-2.0136256301170175,-1.0505830912041261,0.46518677563048427,0.70433355419614352,-2.2842078505691727,0.10286110358905713,-1.7250128251110457,-0.044076431120976992,-1.2547795091290508,0.9951836562097045,-0.53056163452437644,-0.81148136774987867,0.2636958522458881,-0.66469385390251834,-0.13489398448348394,-0.5793131305785536,0.89522191358335623,0.56380227980692021,0.053868019727678317,-0.35558051174473521,0.28875021119803645,0.038334412655981996,-2.7931560812988256,-0.32034884721591844,0.82779514019912748,-0.16276701038863992,-1.3235856013447156,-1.600825617049247,0.055440286498771196,-1.6623296548439854,-0.28537741674831946,-0.9735852464520578,0.052599581256556595,0.3492057753311068,-0.56273344673329717,1.8448909951123984,0.88836454320154545,-0.40528873568619284,-0.69970810708190834,-1.168849079317845,0.14958827874864089,-0.054704442426745672,-0.98300581390112673,1.1269116841147828,0.22779070775393317,0.26458865307815771,0.52466738601352325,2.3475331516729385,1.715254099969435,-1.1148216510463334,1.3987273247841376,0.97362943868064433,-0.40637106281044921,0.61307296655873045,1.0421475343643682,0.076947243576284019,1.0605929818508453,-0.20639943957681878,-1.3959203818893819,-1.2478833756278387,-0.10042692521991119,-0.72787750754454938,-0.64459953059688668,0.9392652688328631,-0.3122806088043637,0.031611082453370992,0.47957658406443548,-0.41142326591434342,-0.014011040879811578,-0.56334739955175051,0.90740543512065963,0.15979443802165072,-0.13384612189818068,1.2666468517536198,-0.72938259405267158,-1.6183284901106461,2.001905038413303,0.42076578505943302,-0.56445170270293843,-0.39834707292698174,-0.44441036442067888,1.5378323131557836,-0.26096277458218253,0.080464015091391047,-1.1154079273112909,1.7607808079578895,1.6456736536411825,2.2496816412782445,-0.22612140877764081,0.12112893453842684,0.82245534405845677,-1.0085713482424508,-0.74576039980862885,-0.30909621428145023,-1.3155310158972027,1.0164803649408753,0.94398497237409484,1.0007876371727136,-0.74355123928541078,-3.1925442941372779,1.6068261438066171,-2.4393168842869137,0.48324799673899549,1.5850969000546831,1.5563835557143819,-0.86373377304457344,0.18780196995732179,-0.0767277523346728,-2.7729058618574332,0.12345773234116574,-0.59107357375394554,-0.2955437021248184,-0.65487048199101061,0.27609705215679109,0.90163510645245915,0.44002626933399519,0.35961067154844156,-1.9074637662640714,1.911549504269392,0.21105360847065971,0.51141715372170471,-0.62768306405040131,1.5286473357749359,-0.61148257906148973,1.496417054937577,-1.9659937400390166,0.69724737603728482,0.6652561045874239,-1.4809420212376629,-0.66563022826731111,2.1341544460161956,0.5528815045200911,1.1835978787872601,0.40020929105333913,0.41061693905318974,-0.38656598084870142,-0.34751691536241319,-0.12347459561364947,-0.34221196845056329,-0.50931607802786805,-0.85614896001819252,-0.011288147311180783,-0.21539069401425462,-1.1145850517636513,1.2944899050569718,-0.13753184935494589,0.41677316680390686,-0.32837128600908105,-1.7038475750421196,1.4210117232909567,-1.0330158192168486,0.29636290805292026,0.1472917528683696,-0.97127067477011919,1.5774075184849696,0.9924613546944373,-1.5545842408650046,0.13427480117934085,-1.3815791228795362,0.91610356054883979,-1.1310899241827952,0.55187636487696257,0.16881644580263702,-1.9334661126280834,-0.80128264129549753,0.66545237655016498,0.82451002751239511,-0.8181773507823763,-0.28156409985283093,0.37181027290957086,1.0165990036598018,-0.51604886768815916,0.27256485820455612,-0.48413284216820662,2.8601341492128758,1.7769673397987775,0.13947908110170779,0.41900852552527662,1.3707990670932702,-0.32746732074058998,-2.5820058593487949,-0.39995181511134542,2.3598750341319903,-0.65049122290532857,-0.93095586223575055,-0.48286748594466011,-0.53819596083016052,-0.48176269982903464,-1.2052815857855324,0.33532608337560799,-0.62383712308008032,0.18633929890236153,2.3018064628203843,-0.17150501725327658,1.7101676252170011,0.6783049826391061,-1.0342065152457856,0.64727119461111426,0.48317988176794535,0.65639728243559403,0.081429856731096067,0.75481162589016904,-1.2718974941963166,0.24191689147072187,-0.19460816339047812,-0.95479283995800557,0.2917774684362619,1.4925297281235115,-0.66640471088937336,0.46062492345403472,-0.46066455462217593,1.7461149035124719,0.12710129763188618,1.2676926752126112,-1.3772529300917262,-0.23175386524762476,-1.5763793832536954,-0.16447257461852319,1.1876492493998672,-0.1337856075436103,-1.3265089255688436,0.10008891987156336,0.18405154579317412,-0.78526150454863475,-0.43547756829431872,1.0201745852815711,0.80908796326373766,-0.40264763176210472,0.49440835863846611,-1.3848554096620234,0.74275817789127851,-0.21766769508932052,0.87411515384082794,-0.2312979986643168,0.099335601294790812,-0.77167114788809343,0.20632528414018858,-0.9865783829335999,1.2582481394985712,0.8878104977136263,-2.0702718886511113,-0.41366135245111807,-0.37536335616163446,0.71989722675539891,1.2229123395710844,0.44562806523404896,0.25353096668748099,-0.9681385112974582,0.92339750157209655,0.42603225649426923,-0.19073843702388518,1.5574630602630295,0.36040819904339316,-1.6954914080959953,-1.7038131301578279,-0.2045497294849738,-0.0058873056662278487,-1.4585762242693214,-0.46993008904090527,-0.8874573920717248,0.29943711388628647,0.32447393594518925,-1.9739266335165218,0.21287286028596727,-0.15259519333689656,-0.0073052321966450024,0.026073754359305278,0.64306568006116172,0.49252226776240865,2.087983283225145,-1.4792517727701591,0.068867908423169241,-1.2838711069659776,1.5536377715271297,-0.54902653656846345,0.074597171289232531,-0.41524923648630285,-1.0995581226078361,1.5441044950557257,0.79860871547451395,-0.42098067105048759,-1.968705318161198,0.95826751975524205,0.11735817023292885,-1.1532905897904704,3.0186117224623472,-0.67057052061605793,-0.89790868785542177,-2.0279617142719131,-0.36943997506357423,-2.1907653439894132,-1.2393260070132384,-0.94331196261575501,0.50101063516566713,0.99128344619284403,0.30209406645488157,0.31853327197731357,0.21585104934608393,-1.40109084942258,0.037375853340794664,-0.75647022593618862,-0.83535738136135351,-1.4887833362393983,1.166773569276667,-0.69555857546742383,0.75399875503699165,-0.82298164758444947,1.0916106597704311,0.079211423522377478,-1.0906966072174038,1.589109430982556,-1.0407846078683618,-0.41393044445554328,0.90945814163645011,0.10602677666003769,-1.0286500393568154,1.1823655151820405,-0.54325872371456685,-0.94020443250111729,1.7193848460293877,0.35400206240570281,-0.73181106742716684,-1.3120445025494112,-3.8048569983061178,0.2035232414650093,1.5080320629122204,-0.17839435470013876,1.0113612620285135,1.2353961920087972,-1.3159422134982464,0.38173765129727383,-0.57288808782897505,0.092555045879861034,0.36540441723525152,-0.92928699249448732,0.041443764065973214,1.1402597689584093,0.036743619095232639,1.9432494370419418,-0.90340593869968455,-0.9072240302609389,-0.89835402890930915,-0.36912465038072056,-0.037729031167588543,1.0462916208348589,-1.1910741780935381,-0.13052866243751235,0.78653508651203086,-0.48630979804042185,1.2638407514649233,0.95230859433031478,-1.3975666807096412,1.3891740953707488,0.64428949691760606,-0.23487279837666541,1.8151125849141614,-1.8259789423354915,1.4075145737825823,-0.27090312700147584,-0.34807128783534741,0.74788478257154778,0.53877025898376796,-0.29363991587212651,-0.65601342379701266,0.90843881865191545,-0.2047739860939401,-0.4875918011816171,2.1852542806173507,0.47396095243966962,0.23245898746766139,-1.0443764787840379,0.010629259129495741,-0.54376991812967057,-0.84915576993859676,-1.2160967936529505,-1.2254280372050483,0.4828905624622547,-0.017754345960595441,-0.33481901002004072,-1.6557245957429207,-0.086861863538305509,-0.34139067550368091,-1.1478458118771924,0.42350697331568588,-1.5322203585734855,-0.83542017934798996,0.026139929780477651,-1.609942246061268,-0.55703314078829591,-1.4319083222209081,-0.76701149068867391,-0.017719531456089441,1.0875753972396882,-0.15853961314093593,0.78196026849993228,-0.35012807641593341,1.1629320307892637,-0.062022550222281148,0.62541022276159453,-1.3754907003155168,-1.7710240845363694,1.800539070207678,0.17952167307986638,0.93997383736525941,-2.0216165607773968,-0.22529095343953523,-0.1237622945196955,0.14105583330231589,-0.54055976677724438,-0.83248271013458752,-0.4372608752209034,0.41304206526767956,-0.29672110575635807,-0.68891065155586462,0.79790937334646372,-1.844104142318145,-0.32377716363558817,0.98513528310598297,0.53829268306049927,-1.586350776861492,0.50582453124397797,2.4638919608378629,0.57057489507294379,-0.27841563574645356,1.836606734128488,0.2003971676387756,0.60561201650046292,0.52971423218630354,-0.88292874026182111,0.0020481646685511969,-1.0657815232330727,-0.90151511486658065,-0.50603790300124618,1.5587139095671125,-0.63708663686962574,-1.1255522023157312,0.11358754337366704,0.79561418752339408,-0.38111301844277268,-1.0978900497472193,0.93667066961335366,0.48535251680076497,-0.51569597591546645,1.6906982442261058,0.39285556595386278,-0.018463937954266825,0.72322162650362909,-0.21232926861947499,1.9231210743450238,-0.75396404233788683,0.77825446885867411,-0.32712492732909842,-0.629881291852874,1.505125933445141,-0.028665947748246823,-1.0826624834841718,2.5137331814828707,-0.1888697666757107,-0.53219867608940097,0.89429148582673457,-0.68905499126931447,0.67955242038283792,-0.17199833733672062,-1.0906071783955729,1.322095600947534,-1.0024619845781357,0.57071504960604946,0.73343103428690082,0.32425596285423347,-0.316087203925218,-1.0248288822710845,1.4423311326009061,-0.36667773638764933,1.1143068860194187,0.16762558750775253,-0.76978692330448262,0.20705683822263865,0.37969030913825563,1.6574663994491659,0.38743942884380189,0.90872398495451157,0.59716974424676383,0.69798777958804914,-1.6171426572937908,-1.8841929202684766,-0.085240329423864017,-1.0405496392134574,0.99965096103117645,1.0335311502719859,0.87469138640224042,-2.2041051519621155,0.51671772344573885,-0.91975328621402674,0.89248286160369439,0.74046760336956263,-0.33299849854051805,1.5198906143822417,-0.12455072949480418,-0.26747266681286647,0.88866958078692404,-0.22448179841289484,0.85758104415654135,0.58710296312096633,0.86691622782751177,-0.24741114922792765,0.59648628638296297,-0.53742300442985935,-1.6752502994202516,0.51528134892461197,-1.7453906601303095,-1.1712464159761182,1.5933524291536663,-1.366780107373001,1.0105530832798637,-0.32294945323517082,-0.53339284737667259,-1.1099048422306643,-0.43847035611679958,1.1059415273183368,0.27947367311654142,-1.6774743108137669,-0.071083264650645059,-1.2598452601707089,0.20622744718892605,-0.44685425255840683,1.1700044212019702,-1.3932012150589077,0.94236939723206326,-1.3639231110388188,0.24286289291071911,-1.0563878223864223,0.32151960394003282,1.1627496923707319,0.14009176296595449,-1.2059962678221932,-0.91490506762892621,-0.1380059081724693,0.88924454013468679,-1.5532105316703324,-0.84638706522090823,-1.059052488416282,0.53825843144222785,-2.042514514802281,-0.41637745275375437,1.9206082566465941,1.085122582957329,1.912767193424038,-1.037777264614673,0.30117411045603087,0.072447773744196128,-1.4747520416502808,-0.0016958584406429247,-0.67562706620303703,-0.11943345425831151,0.42913649759125394,1.0060607308393086,0.55069197554212013,1.1219320435497264,1.3119082126243373,0.94649583476624299,-1.1857240860858829,0.54893040673072069,0.52942527122556615,1.0207350419855294,0.44179102226403016,0.7788926612530348,1.9468326002605054,-0.37868947620487825,0.33991888784221391,-0.53566670955183526,0.78119878780369434,0.15295006095308852,1.692065668478945,2.8009117171577937,-0.033948868046097869,0.85713316364306369,-0.52175669733747743,2.2109624529005019,-0.37536270253498039,-0.035178624824560994,0.75380878988181155,0.28098718591389932,1.5761437310234905,-0.91578072012113765,-0.48258556854173346,2.2857694273577813,-1.9542640627770727,0.58283000921259942,-0.74799007569732057,-0.85947374014647115,-0.95406035905188302,-0.56586928934844549,0.067023793802010248,-1.7989370668955056,0.65276596531419151,0.0041119309925573468,-0.92776654417032423,0.38119145150280676,0.94560089481028931,-0.66017754258772476,-0.85970088032445691,0.80892908758482085,0.43500092062636647,-0.49204707802104125,-0.38224735354809453,-0.41345034866737801,0.070023059850353134,-1.4379076074200046,-0.79273288316717772,1.2476557348327604,-0.03924561248073645,1.9197498992419255,1.407184973183212,-0.13636639298560241,0.13159904777327996,2.240285129058996,1.1700142079041502,0.35411974956566028,-1.1634874622231244,-0.18490879571567803,0.34631332000467169,-2.5268565558713916,-0.23536256980026912,2.329561561759435,-0.015312089615788328,0.89872383625631147,-1.9228250120538406,-0.087084468031433285,1.4875131052261945,0.19017069908143841,0.2803020527165786,-0.26851447470964684,0.95468294695913403,3.4641158955886184,0.35942127553715947,1.0037004756292727,2.1720589973215345,0.15526153308432034,1.1885817443627293,0.13327614070415938,-0.68410388065006422,-0.41720455084818819,0.39761444127463669,-0.25076401273524074,-0.15456550779618974,-0.23593830648596778,-0.97440026047220518,1.0758078939140132,1.0933621921957632,-1.3389322584226839,2.4324441968901711,0.84137176380677325,-1.112339755516734,0.42734952387282349,-1.3076177876450743,-0.57454187815562618,-0.17348994405479462,-1.1110180865941779,-2.0654000486731556,-1.3351153233894724,-1.734741076938509,0.18340477500165664,-0.18675100025309802,0.47434212733078329,-1.5063941441361444,-1.6378302531421391,1.9700815941228971,-0.6664361668234754,0.4982359232332233,0.3241817982031045,-1.7890661097786278,-0.44419590387421731,0.33169424472361519,-0.025570060724011631,1.4164651301731337,2.1728622321016879,-0.56453095462623315,0.058405295492388286,-0.16867245252164459,0.57069351424876225,0.03864137230260558,-2.2558368209886477,1.6329911810107147,1.8017356072538329,0.06431154339754655,-0.18023455761234214,-0.67891853730026885,-0.93766902711166611,0.42985032801369266,1.4580745507995856,-3.4075619416990484,-0.92158681498623263,-0.6833037150731438,0.15583210345848716,0.70818960530385244,1.100070762526405,-0.48768122982351075,1.7675229836895752,-0.44157663378204576,-0.35642783059615069,0.62603877541689057,-0.59047889801831055,-1.5135867844129609,-0.068691995135552339,0.62819819626645945,0.01950410682054975,0.16886058231858966,-0.35867497656543984,-0.73000530907390682,1.1505332147986207,0.42823039562570347,-1.1858432305426894,0.17467934714088965,1.3150789707963153,-1.1505533278728279,0.26670478943613352,1.6569278983201983,3.006333946901345,-0.17161307564292189,1.7516662018930065,0.43288014497969424,0.018055783278196864,-0.62091076196876316,-0.8585467215167597,0.13849742643831731,0.59960992354908804,1.0435052970705376,0.84255399126149699,-0.93225564471223821,1.7049518771302941,1.7450934924610273,0.86824357278059883,2.9233558715054175,1.8813544746294633,0.10512481106146448,0.079267821010179998,-0.04452244456554718,0.57067741250050841,-0.42501706797424527,1.0355861275476919,-0.053093944506195256,0.26867710135194173,0.86140535400562857,1.8814819043812736,0.094436228796123761,2.2167818929014298,1.2617022227534842,1.1384328986378642,-0.62491022351393755,0.67714422118221107,-0.024371847275719918,-0.030614330394227791,1.5910696516391563,0.66102450951033886,0.64836803814642407,-0.16941841891789444,1.2373228584943436,-0.51091288460687645,-1.0643001737402793,0.1230461661371703,-0.066304530473813988,0.39943653756864078,-0.68415695071025084,-0.65103749131178201,-0.50240047217075778,-2.1884249782072587,-0.61447301770970086,-0.38156211815100499,0.19631355675029841,-1.5101768921786265,-0.69918115093243582,-1.2801514166737147,-0.035471510354620123,-0.094322057519168959,1.2339006888601438,-0.56400670622486482,1.4502054694772413,2.5645314690670253,-0.20225009967640878,-0.40973002429045574,-1.1436494605089196,-0.34707716481184187,-0.051923696710170317,0.94639110240788848,-0.78323155821693669,-0.77487011508106884,-0.76103036249813927,1.427393705287439,1.2698224325644381,-0.21797878971567924,0.1213624784189985,1.4810122384820017,2.0669027088929619,0.51557864650018326,-1.1918412007446326,-0.66502064242253722,0.09413553625333998,-1.4166105302339558,0.40868602459487618,0.72182157768913846,-0.079197939739302281,-0.034549077036831508,-0.77073942858284916,-0.48585981334257367,-2.2801044459934738,0.10714396753200092,-0.86175870576103186,0.63037844361316697,-1.2390450481489836,0.27249873788698792,-0.27092966184074896,-0.021953610371457141,-1.0959145108003991,-0.0281278054717128,0.4246185310466189,0.037363512164078863,-0.22912349972318799,-0.13318544123957346,-0.48079294359838387,-0.39474190509798546,0.11133288754289182,-0.40538275318924638,1.9623589891766264,0.23646057383368954,1.6415433150076633,0.29252296845942566,0.52100585032991431,0.46300044985656713,0.63824468628979381,-0.5096921242685476,1.3687255374983587,0.26514689756166165,-0.840399381119458,-0.4791224798381819,0.89607047901592385,0.20557103812494038,0.36296182124247234,-1.3546974133787624,0.05050741690440104,-1.2544547663069674,0.48282349131913754,0.13705964302217891,-1.255507193148871,0.15087855546359888,0.25332345339792228,-1.8073829109484949,-1.0207127508724936,2.4081437124719214,0.48375189864075335,-0.54261425075765657,0.44546925711754404,0.14781409866476486,-1.0926190197995203,0.31408558234957956,-0.27999077521765992,0.40694974692930463,0.32315650698920606,-0.014594795604492786,1.4873381254330018,-0.59350532311155724,-1.1362233516992581,-0.21729226199880333,1.1832674413867457,-1.1525456196082593,-1.9235334373636959,1.1182602673457684,-1.317362187445934,-2.2685519460758075,-0.49517309666110304,-0.31034845012983714,-1.6637644484503313,0.55309906133184816,1.1540324284091863,0.68571360544367199,0.30584985974184586,1.0211999734813211,0.26651902626132373,-1.0532122606648162,0.81526984374644673,0.57208503046478909,1.6218571825014796,-0.053916317246541605,-0.051735948336372954,0.84286653404026746,0.21400337004576386,-0.33064197255470884,-0.88361095193145456,1.0451259369264274,-0.015517474396671537,-0.013140812283163401,-0.46589037268539457,0.46820837299491885,0.88284441347628229,0.78886397610308223,0.66753364563632389,-0.27323508278538311,0.61544954574427402,-0.33241437080557962,0.41586858300740481,0.99061218471952239,2.6699411209491881,-0.39144040894551974,0.20205493906563635,-1.9874306222678826,0.62616696481136791,0.46585104785755871,0.080179418810994385,2.6122108626733733,-0.92531947022045069,-1.4721052248653597,0.42554666272745922,0.64073344941302079,-0.39419877863416314,0.19600168423410286,1.0608308490059779,0.13625088397338653,-0.78933051079884353,0.74855924792734507,-0.24708585758966856,-0.70599610789152323,-0.26466850569158146,1.0049147268103327,-0.30985497069914536,-0.18455546150405316,-0.49285307708795195,-1.495703458210087,0.19549328047617048,-0.099756502625547167,-0.63040683357673055,1.2960217656296333,-1.4812952770211854,1.9798710482653961,-0.92951050736148366,-0.72266613281916814,1.2896373058715165,-0.33630258348738706,0.23440529055796189,0.085032894581943561,0.66012198817564549,0.25663289839526288,-0.16059977664386438,-1.703061947774217,-1.0318558902880741,-1.6389054037991708,-1.5994486658647582,0.3267694388943857,1.1135423311785406,0.89243389774829363,0.57943233142216788,-0.2707225531367089,-1.4370745309710711,-0.14473578616655761,-1.0930351874981519,-1.4426791761241353,0.50649326083018054,-0.041097066016365195,0.66523461948670892,0.41971978492534934,-2.0427690834880425,0.36149091525430949,-0.94099145982739185,-0.27746093627862456,1.7866442055386131,-2.3494229000565916,-0.16461174835636258,0.36611930031839468,-0.67113352622558065,-0.63888739060620303,1.0677152418732332,-0.67891355051823976,0.19146505409391837,1.929135502210126,1.2795194682222364,-0.27460823119188693,-0.30876611069397092,-0.37287975960149117,0.062852577811462459,-0.32580702504027359,1.1405760931951465,-1.181659607487501,-0.075248494056065152,-1.1398349094513283,-1.3944658776939796,0.42509919478836566,-0.66462949879859246,-1.7991858928948226,-2.3637676352330206,-1.7702523864937829,-0.71490803059682106,1.6833994564111185,-0.58132446883919364,-1.7770452838614126,0.33253667347463706,0.74714930467156415,0.49457093235848815,-1.0166858905178595,1.6473225364389059,-0.88237618573132348,-0.67886385749552414,-0.61960327092967293,-1.3723727371322405,-1.1630181689114349,-0.28767411271914106,-1.1448582302828685,0.10061677820947418,-1.0596645842429608,0.8385091382887031,0.41435709016802769,0.62112216799628839,0.078317581794670632,-0.86168747618860098,0.32786827814338154,1.7258288495809544,-0.60529171936907389,0.3630850510334242,0.59091029620329927,1.2835136477130902,1.0151105650358816,0.22808691149451846,0.98213561601902988,-0.51058118983522993,-0.47091446357573219,-1.7111246319441142,0.55910221403767124,0.16104807511213001,-1.1282232120138631,0.046578145183777599,0.93414531854868321,-0.55313845948534113,1.2657839235687609,-1.2950006142827117,1.1341600544278458,-1.0250105541391099,1.8595955933499897,-0.57396017895449891,-1.584217920504182,0.81700974067141174,-1.6431675294865988,0.87074762467509714,0.75429886190420437,-0.13712108782768778,-0.53398283014637726,-1.0471948743215715,-1.2207717597947383,-2.0597130942183783,0.6826749761234423,1.7605870312338159,-0.33004615246376173,-0.64534957417225436,1.4039115159375499,1.2314937298417756,0.6927204532782949,0.53619844701625641,-0.89784197178929803,0.11893013821002116,2.5234642817018771,-0.24703022633622362,0.75240550747607815,2.0402244311810178,0.59905517931193553,1.2337830347736198,0.26283430432086491,-0.72169668094698958,-0.38048492307281073,-0.46506890708223625,0.40764691708778694,2.1711793181837367,-0.092731608134201129,0.29444654627099826,0.84046372061672725,-0.57677573684163763,-0.88150034147173684,-0.78164540229203094,-0.24588742342531245,0.20939968201169842,-1.7187410137277315,-0.59544818639766073,-0.19738881228344432,-1.3211124836584254,-0.27584358395220587,-1.6319121467009698,-0.37780296973429689,0.066391353018632748,-0.089886456206628287,1.3143412865881698,0.43696106439523669,0.87119820615574495,1.5202363874966331,1.3305314342105001,1.1242493477843016,1.0016593903206239,0.40557601587248632,-0.29567482899935538,1.2687008401147364,-2.9734844264639637,1.1306257603653775,-1.1417546919003492,-1.3563155483111264,-0.96357120736376478,2.9167415393057534,0.45747670208316465,-1.4012721913775887,-0.27835161425689986,-0.26603344130166645,0.29721554348891571,-0.22096260893486502,1.3125317478847081,-0.71304218286828291,-0.51810365908540579,0.94276415763901777,-1.4660204397733259,-0.89547932232046945,-0.41552086583583758,-0.56557651945807597,-0.095164197476711204,0.45402810198048971,-0.066783615160191934,3.4794830476459562,0.36966028619600694,0.4887787506594673,0.67091531447502051,-1.8668390190466737,0.52775294186308408,0.45595884458050145,-0.092101573262619016,2.3589693736148316,-0.2548081592137984,1.1005207511174124,0.76433423685741264,0.1374292308891065,-1.2607756902887604,-0.45904491939685999,-1.4865242062571848,2.8199914484230528,1.5911470247196908,-1.4094413404350397,-0.44829552325224897,-0.36093922158026459,-0.16678865656156391,0.28023758402358784,-0.16971029138936419,1.0306452098201992,-1.2442957129121714,0.40350888495044368,-0.18331462579732802,-1.2618424159457791,-0.90152704029138631,-0.58102665483872318,-0.062344306890669811,-0.40548003091045215,1.1775570342081116,-0.37872080542895464,1.0141626848145986,-1.1393916641299235,1.4932266838151247,-0.45658068943119501,-1.0675046919661115,-0.81234629606579301,1.336274327422684,2.338115111811923,0.73757799746137187,0.026084312366316462,-0.19927658164986348,-0.11323665594709807,-0.59758651507810823,1.4252096968079517,1.381120891721938,-0.055441837296400724,0.25693441642511006,1.2516072897861381,1.4547647565837931,0.69536208069886674,-0.91202073160475605,0.41509695513161515,0.27080650653227661,1.3523615693115494,-0.16190743561186388,-1.2304434457917668,1.6250938534750419,-0.61509112304919999,-2.7171391443032507,-0.30780734075386906,-0.15155489694738716,0.018421919328928303,-0.8249789891175856,-1.1855895157296301,1.5930883475922848,1.4733782472159991,0.28987925128012448,0.46247184518094814,0.9699149199284558,0.63100141993695502,-0.42929603096845331,0.1173222672218075,1.4264723814766278,-0.26086127534673714,0.89956060661464388,2.6483542305317389,-0.22038601693895291,-1.4860418620902942,0.13037772855846919,-0.47988694256135861,0.16829977801530555,0.34977468537544465,0.29084726295652619,-0.32562554202991584,1.204013188436279,0.26234952542059858,0.87725922713147475,0.2400303741248275,-0.97548563750941442,0.41333798556802315,1.3763231207882325,-0.67109710063164041,1.1514468486421505,1.8157842330087466,-0.85145369688502381,-0.68327737117781684,-0.2120775871072097,-0.27732315973499272,-0.15383927593518704,-1.8471159711110674,0.68978289951599636,-1.641336942707553,-0.94898399922082455,0.87267857717355479,0.84304771146690161,0.31335611165614652,0.44916500783555607,1.9246538181258839,-0.42151814207115212,-0.70201059739146698,0.60683885138428939,1.6192028608361162,-0.35792360977527476,0.93125871749612488,0.49109683392417075,-1.6180393710543564,-1.7536627347566629,0.65034322189376093,-1.3310100518324739,1.8504425974732379,0.29962553465249375,-0.24391434609364265,0.093501427503857273,-0.23288474582596019,-0.46023760961083182,0.11794143509342181,-0.13246648918555423,-0.12319348994258802,1.2592575109447894,-0.30399266011822795,1.1168130558880531,0.032165529687595507,-0.91856078885932757,-1.9717487234198214,0.8040200048242252,1.7281065419093387,0.58510860766852379,-0.84958362730979198,-0.78552460280298486,-2.29831011755285,-0.098766965852357849,0.22418845286151645,-0.65484325527994058,0.5314298650347784,-0.40111954603487548,0.3126626198373143,-0.40793064882066149,-0.72388601415797127,-1.5934079424715055,-0.75993545613971536,-0.7725011288295065,-0.27592089442498635,0.58880200138371097,0.36762173211027588,-1.3672984767612948,0.64532788943548458,0.43117657730877756,-1.0065098647678599,-0.29559465319742156,-1.0442728552322535,-0.1827521314206777,0.50564622988186536,-0.058110755998107506,-0.57056725724990676,0.15317179360900207,-0.26861961757002717,-1.0246416547834309,2.0097195276669151,-1.8612655932260738,-1.7157161196449104,1.8094160866575557,-0.05629727649467859,-0.81644178878469742,0.62521070269545698,1.4378826920671297,0.048496286730645356,-0.82022163131362591,-0.52912646942557395,0.64665729590498133,-0.56254003701104816,1.1584349221256467,-1.2010955600291247,-1.0991905543557483,-0.95886039099770881,1.1439609011262064,0.58441454823321282,-0.94179841029395128,0.94774511040840648,-0.5324593397018218,-0.7474308950362798,0.77854176162467537,0.24871064925029815,0.36183105415526673,-0.40284213905241956,1.9692141827013394,1.5208170305131796,1.8937476237105464,1.5168239223021509,0.29061393114302353,-0.11919853736458647,-0.13032918699964094,-2.39529238589689,0.87310435261336439,-0.78473503655074739,1.0719908479579858,0.82776409793030081,-1.3741908866668857,-1.7592180053373945,-0.38320829312647192,1.4138030832934088,-0.63669191774935863,-0.2379902930981993,1.0390923747721665,-0.23288697510716358,-0.053937922682654411,1.6051239783295328,-0.23026644366957832,0.36222855064594145,-0.72262416755831893,1.1523881538927947,-1.2465586827416721,0.72300117989162338,-0.96758678768989148,0.99278883524043404,-0.17130247969688472,1.1176607146759849,-0.2831810880828578,0.44575235523288387,-1.1048182743126993,0.22212978990616247,1.3167988660626149,-0.1584238073098938,-1.0543447952000682,-3.086751360778778,-0.83710508279611484,0.68246948050876011,-0.37636375672820577,-1.1590825199816175,-0.053888213412305312,0.2808558982368019,0.56954996138391512,-0.06361002677277533,0.24169208740843481,1.2049578204096014,-0.040367702032100591,0.37033700795245572,-1.8690547092970864,-0.086403106080752815,0.56980453781534313,2.8072763295818479,0.2919176653847525,0.37694681857092038,-0.044602887649152309,0.31524582520730821,-0.44673222964920478,-0.93148211987290963,0.14231408295836831,-1.5826215843127391,-0.56782735870298351,-0.52809943567039119,0.75467848422259942,0.24479919935433067,0.63942530546300791,-0.11991906232835499,0.37107721330991611,-0.038761608404179075,-1.2002769473258361,1.614163380624476,-0.7238453547528676,-0.21010502585731627,-0.75247781158730676,0.24363282671707767,-0.21388338088774131,-0.10518845756653264,-1.0961074534621162,1.1971784937231393,-0.21708671822595382,0.38375877464675329,-0.64328780020883058,-0.24050502098409401,0.99289709127174841,0.10528676213347489,3.1043281159396381,-1.3506553639237826,-0.9102417851000788,0.80382749402520826,0.047087716993910136,-2.1718219401963803,0.99411976913627775,0.56591706529457597,0.0077915489582212564,-0.89990384539022217,-1.0150516615433012,-0.70517672190512082,-1.0276621245176989,-0.39949210327769058,-0.85756015987192491,-0.34277074774557059,1.9454857886385863,-1.3628472215250291,-0.27745923689235469,1.3327608840530327,0.93837680140035284,-0.55680949918695122,-0.090270100296798578,1.1885227354655279,-0.1562039600182176,1.9603379321025647,1.799167721831493,0.57918837644280829,0.91711163327374223,-0.32216422934105426,0.37336307634259436,-1.8594136981627196,1.0584279456092069,-0.52769628617616471,0.16993102435536428,0.1101652087889269,-1.8550324065708195,0.010389185821186824,-1.1597062067928654,0.52315693990837253,-0.79457531160602368,1.2704194659378862,-1.2973641443185109,-1.7674555331042181,0.8066440190606079,0.015102559011497254,-0.39255046323461723,0.59081194998363318,0.76593291790242202,2.0631229674203819,0.50256515542486058,0.17343736453401265,0.60114510346743899,-0.18727504652554378,-0.88841199722665609,-0.034941291383332636,-0.31769700614109997,-0.90593731640217623,-0.11074805982722187,0.76573490263229504,0.81182665883117444,-0.70576418136164099,0.641197545912777,-0.2367025278141375,-0.94467799452734003,1.4798827059447186,0.90598298165575575,0.70720367817498142,1.364152558117967,0.068705535822139702,-0.51791105934907467,0.99417693294312204,0.32260109477765814,0.4100070090327258,0.053795586784109194,0.40886370740725786,0.26185174015929813,0.20279742000751705,-2.582616492118718,-1.1206476444973466,-1.8500088724421557,0.36125646858692073,1.1741385539477205,0.12595149911636933,-0.76621638879004372,-1.5656421387435187,-0.45475254892783151,-1.4491801370388881,0.35309273471006275,-0.29926885306614254,-1.4279860219584291,-0.32451541326830408,-1.5892001834385161,0.92216145231936553,-0.59969093397348538,0.49232495315935715,1.4257000203060479,-2.1516527460353463,-1.7176023613495111,0.73458758796130808,0.1749154597126481,0.17928954715723747,0.92756553861743196,0.2843400428567785,1.469441658817324,0.66355839747221101,-0.49555036087806797,1.1792133628722767,1.6751017752751116,0.22730667543436728,0.61711570429179841,-0.84423237737140888,1.6073568701378493,0.64218209065953857,0.5835058845206943,1.130403514890769,-0.28571629982943691,-1.1459743747744402,-0.49466790263541838,-0.69101522652393421,-0.60697476664824546,0.33492491279248965,-0.47911896012464927,-0.5270322375465939,-0.85294072895352413,0.87016788473336737,1.2171986857091781,1.8095358966771078,0.039357718827157356,-0.37815462423710594,0.77910282844970702,-1.3205734108090703,-0.2085087870770293,-0.56520158502059203,-0.64817264255215612,0.51639061070750503,0.9881754558906487,0.28414228977261113,-0.48640879632260819,-0.19500730499750712,1.08087118161095,-0.23332244734370575,-0.87902132691807322,0.42133041264447546,-0.75482134188241534,0.98461375325089939,1.3218734002824888,0.76226791013940465,-0.7157068050051103,-0.19199999475819693,-0.79573968263608252,-0.23175142392391221,-0.45916393924872012,1.3582942104025237,-0.48364932204652084,-0.098872864182089584,0.49389689875900422,-1.0145100677794889,0.31853571650570611,0.17202984393664536,-0.46747730622366651,0.37320347714592178,1.7513666393744669,0.41300211447957375,-0.11326627946775211,-0.26064023736404263,-1.1800966977329044,-0.80896545646555262,0.49881299667346263,-1.0078294035987263,-2.0189695468859532,-0.55436609683119931,1.3440304150448688,-0.87204773284774972,0.73991146111536976,-0.79967019055474864,-0.081119819439082239,-0.7299696965248913,-0.31168465963834124,0.46793637833813334,0.80916101866429813,-1.6742087770160912,-2.1108834239117931,-0.17014550459968683,1.6607688730687915,-1.3218385436308933,-0.73868854083879132,1.5748232490949157,-0.55158719924683464,-0.69859971450684766,-0.96521178824738962,1.2267417114126535,1.0134991830335645,-0.4864900345006028,0.51817185760320994,-1.4353475527005937,-1.4191458819158445,-1.5303504025490478,-0.069087278254274881,0.9470321860872235,-1.3023447044631917,-0.7326411692008209,-1.0155237221696316,0.61654640405270844,0.54420836163818631,0.95136526707739832,-1.1620925497041108,-0.37225823630739563,2.1163461363738447,0.27609949736716694,-0.44699575943326003,0.26660846055194665,0.66302733783488299,2.353488404660987,0.58210322611006948,0.17906442275705028,1.6325772731869892,-0.92289333753487568,-0.89971802802184908,-1.3800031879675487,1.1194082733092234,-0.13608097159962504,-0.76804377990020911,1.5021723141390204,-0.69755053954138013,-0.20421491511372658,-0.61585274125321066,0.021968452616527374,-0.92953272805641252,-1.4942463671549449,-0.46924542656312856,-0.50859636052443169,-0.37558447894813596,1.42816115680631,-0.62650988492321036,-0.90117977359522106,0.91510058738606204,0.2258198713400657,1.8462819537082185,-0.0086890368714129945,-0.4443804499829454,0.95087133390262679,0.60461553198646123,-1.5466643542978475,-0.77543511310323332,-0.50475818065111233,0.78636252323382094,1.232282952763387,-2.0228121066028759,0.82389973466120181,0.2692363734454416,-1.5712737835298813,-0.084380130719861404,-0.33435037794223127,0.019423168156544282,-0.97654725842370382,-0.1488092311663094,1.3957805492653319,-0.40357922715120559,0.32737510704630596,0.014415395783301393,-0.52614829691600562,0.31581582726427387,1.5691435842879704,2.8022878753311975,1.5718301314114054,0.22925937359460702,1.6538856889076459,-0.75176910362605898,0.35525246963790053,-0.19619252758352754,-0.10428233805561669,0.096998769164840348,0.37114413562896609,1.612451691744518,-0.28330893793902179,0.72733488030983207,-2.2844698690507332,1.8513402400751866,1.7664337961066194,0.947833706404002,-1.2107440130227103,0.59751861893622504,0.63395491377793478,0.39452013424988447,0.51768488299855053,1.7385931997470023,-0.82442472005102141,0.49735383532153171,-0.1361834699060592,-0.018985111215378849,-0.28018297304585099,0.44916465047275828,-0.43445397639108202,-0.053545082862127065,0.47590626030713212,0.19177264234057093,-1.2336787172800545,-0.65574095026028389,1.5730277551129497,1.7190351676508633,0.032563138349937605,-0.20497138381471927,0.62511379472222006,0.44583963585695469,-0.86963050731513114,1.2535491724644192,-0.013724914951877153,-1.8040511973156743,0.35070225806375266,-0.21765920834616601,-0.98353612441438798,0.57428309683157086,0.92209527903001598,-1.9068112978659464,0.69309043947334381,1.2128839605498019,-1.3692875596993652,0.80575411420065157,0.85400083009124217,0.0076499193162017764,-0.70172389499762433,2.2630816656375941,0.90262468341833391,-0.40585780916558362,0.18003372383984434,0.43258774088561419,0.96924574238257355,0.61841081676509524,-1.1285854782615994,0.45183928251611161,0.76427578350553171,-1.151700126909226,-0.68662455878813611,0.61680803583762467,-1.2205646584030017,-0.3223945181290791,1.9188196974401726,-0.55375233059505313,-1.4389674353288395,0.31757466366701759,1.6135846350128331,-1.3577790582243614,0.14869317689218234,-0.46489088035999271,-0.19011394613845564,-0.16515185069995003,-1.5050339071605547,1.5015807717451606,0.38145558044923911,0.34055517203662877,-0.74674581722554023,-0.70608692133309936,0.45482634489460888,-0.71109808061667157,-0.37962511109581765,0.38110705256625543,0.52353382517785441,0.57556989311921847,-0.95610568503600002,-2.0102634610763324,0.16142264174134949,-1.5773845999067715,2.9290567124270774,1.2587609336676042,-1.3484974352824679,0.57622179530757356,-0.99204865047132451,0.35362045956634308,-0.37382139289177746,-0.77534869176459753,0.48826124872235027,0.23427040398056306,2.5419143022772208,0.17437322346438999,-1.3554882692019459,0.18354999299125685,0.6197276440755658,0.014172148319449768,0.050477306388896741,-2.1522725916570757,-1.3857332493394598,0.64453276771109458,0.70814579013723788,0.87380014558781949,-1.2567144935379648,-0.027932731338321574,-1.0092852910274663,1.280615474466885,-0.34282018709467638,0.42450738461197779,-0.051363796638073812,0.75349285912073904,0.79306289348993531,0.31167582064378863,-0.045300217246543192,-0.93682373058878698,0.46308638797782914,1.5241181339626901,-0.80842051629461598,-2.1213873130135981,0.50086086258750262,-0.39457263117604824,1.3807451688763497,-0.38439671463369851,1.7195427374217467,-0.8328916758184266,-0.27479422635832002,1.581476954130445,-1.4044363153521906,-0.97637274343454361,1.347156439074394,0.75114753736669204,0.97350932681450753,-0.95968758884990479,-0.57250869465151988,-2.3664143177471697,-0.41895675962563667,0.33626364903343253,-0.1134451329853622,0.5702833582036283,0.45433863310890898,-1.0008847868263187,-0.76943029905518812,1.7856876857550201,0.81477024896744665,-0.5672791465634961,-0.3502073387340412,-1.8684078932501615,0.33977361941051476,-0.4484463292878812,1.1923115161764355,0.43319055262961936,2.0464443377325217,-0.2464572984906496,0.77087807844088574,2.020387467702768
0.14858862010350987,-0.82327265964326179,1.6468283955186584,-0.25035896164881122,0.044538728296087994,-0.09282278184512259,-0.90088912657750542,1.4724021277574082,0.83420806370209422,-0.42087410008918075,1.1252110105844257,0.97388112385114789,0.16630130154693784,0.82507099858340105,-0.29025369841057336,-1.2912485846856301,0.38406347722218925,1.3041293796421718,0.41302976264196334,0.38127776622631754,-0.95226689939182041,-0.72417134485184709,-0.64454211219859803,0.6307110262914829,-0.51333220628681897,-0.80981182314750799,0.1933126856807508,0.052841671472039393,0.78304455988333821,0.18428830060661258,0.39645209635124146,5.9079467386641469e-05,-1.053401180511911,-0.11061902000621796,-0.59251235278841619,-0.50951715002654896,0.23676401935924984,1.3210855106025723,1.3603943595048293,-0.037461212379287796,-1.5335640445122871,-0.25648515701814939,-1.783309676943637,-0.10499011453135196,0.58991212186836872,-1.371185996542128,-0.91226528793903039,-1.2501691391753171,-1.0068982382626273,1.4773095007628045,-2.1674261398933372,-1.3976937048992697,-0.038190546494419615,1.1820680068006997,1.9344355224212439,-0.75694232426318975,1.4856261483268769,0.38818835312291206,0.2950138649466934,-1.6929434907010159,1.0795390594902525,1.2030722036568768,-0.78310625904191888,-0.55212375831181193,0.22109621052060674,0.088301398425185654,-0.60459980916226108,0.94085646177261084,0.16074422531174229,1.5617121017144884,1.6680832493092188,1.0399967270825816,1.4461693105335711,0.25717296056233435,-0.34813836940413617,-0.063873685278757295,-2.3904570770220626,-1.7121934323083023,-0.33167455761695536,-0.54390210606069822,-0.27236278715152978,0.78655017261404714,-0.33762563923615979,-1.486122482787618,-1.6285264634225141,0.71621950460682093,-0.80015414303077248,-0.78620404064297966,-0.0023867692493312114,-0.80308760793417566,0.46278421962973537,0.72443775838141744,-1.2843516113849782,-1.7581319252611252,-0.044588423615208567,-1.6451479203894206,0.44537922029233334,1.5352977838592612,-0.15336842253162888,0.83632065885834439,-1.0092780463630846,1.8351756363162448,-1.4933804546477347,-1.063499910334629,-0.29320060887341165,-0.55026481181672326,1.5367292953168221,-1.385354564696496,-0.92167333838066934,0.61472830716489735,-0.053640986073977749,0.57347726845365099,-0.90939453379052793,0.8816538212471372,0.15988624821744052,0.81874393009886082,1.0515992848295053,-0.69244094753769247,0.12657369269608174,-0.3167817175961572,-1.7390676927947746,-0.29645674943100797,0.37028745856606898,-0.245797721452653,0.50614766147992263,0.51874733015622054,-1.9127328293722254,0.25003670147529583,-0.58881859247408386,-1.0366253092500577,-0.87454534132389883,-1.1384432089856478,1.9357121633023833,-2.2021479273460232,-0.44965301981567807,0.24268430350935907,0.096681609929776036,2.0413144188021071,2.223299158996797,-2.2586785684426824,0.61961691940087393,1.1131149988158688,-0.10122801620338315,0.43291383077479995,1.392183298338306,0.24657498590720375,1.4307336726819964,-0.29644125848316782,0.65369810790067584,-0.83727116191803552,0.82361383416808287,-0.0095375747831826316,1.4226862721279572,-2.0999931338737299,0.53018295358536749,1.0271433074489191,0.90817696822441774,-2.1744680576665165,0.74555924629407033,0.83190871176646009,-0.23398203039906923,1.5603077049612262,-0.10616626440956579,-1.2097756638427755,0.29121346021192296,0.90174873224462526,1.7920164893681547,-0.38621887208736444,-0.16513802791971924,1.089602188588578,-1.0424798164869511,-1.2253877277441012,-0.22241709959631331,0.44690509671301254,0.9531717700013187,0.99382844036068696,-0.95792826534321829,0.23481373752223841,-0.41380971359719382,-0.29690223763061846,0.21067301617788786,1.6762004945056477,-1.7551431086926901,0.0083608968183331266,-1.0548437204353238,0.53994138059754992,1.4741324924882135,-0.03958853386642272,-0.44199124678203955,-0.32931243003937422,0.51089659528350728,0.064839823362391427,0.51167921810676098,1.2009087717957965,1.9617481403230177,-0.9527700412549831,2.0960089713837786,1.0533296225875779,-0.071311638459431601,-0.90344526268686054,1.8311038110563982,1.0270429005553883,0.21085087999733032,-1.3262496959615029,-0.035547882604753216,-0.46622185967110175,-1.2014674301012733,1.1301384263385663,0.66833747355390327,-1.282398367813457,0.80347170371482668,-0.62540868945368699,0.39306297099012849,-0.67429923687891458,-1.6070787144776628,1.4345747950708132,0.86842519583416788,1.1933247928632111,-0.70726409085645181,0.30967798799880775,0.99171583512895012,-1.3583375837990066,-0.62659920031342842,0.53587666826962643,1.0293708280611142,0.039210930140032886,1.4543340770727677,1.5760888483947002,0.021631272391978856,0.58010060873002112,-0.70272097275547096,-0.21152589177328504,-1.0332616948832853,-0.025742706804240182,-0.74202166040896478,0.63304008386499278,0.93400030445675919,-0.024076240381623367,-0.70284209161423394,1.1182300290473945,0.22756031759138018,0.33955415387247168,-1.1309548631964539,-2.3916166132171903,-0.11024266201204755,-1.9917246482904289,0.12973118192376901,0.0081992875612044921,0.21497627128423258,-0.26504276274430028,-1.2648408962669078,0.74535179483828817,1.2565751014154007,1.3495298287731898,0.38960226584670998,0.12888762652816627,-0.10999570147185841,0.22387828474453114,1.0536362987200616,-1.1021599981137375,1.2457794925946462,-0.11376949306196725,0.42897221239375993,0.61383777169795573,-0.83317479038761744,-2.0431366194095304,-0.055391011384129697,0.060827686477896104,0.58364989526444344,0.72689490225014963,-1.0291921893123397,-0.76802026170570104,0.12897643025355843,-1.6210897743702577,1.4789327892288628,0.74270895750108801,0.049698577541111816,1.4403940666005852,0.47006490649878518,0.39841004996737184,-1.4924380272115825,-0.58550833718841455,1.2221933067581519,-0.32691642326618814,0.72612778174702097,0.52713200117974424,-1.403814483207924,-1.0900840623754673,0.79493310069481227,-0.61671921505518845,-0.80245963205963833,-0.095049569467774916,0.74795374080064647,-1.263471736127691,-0.40312720738853325,-1.4874016822301024,-0.6777026034054443,1.2348675091828087,-0.41244574411554169,-0.28608960176022696,-1.2582695809135542,1.3143094464366138,-0.72609264045156385,-1.3192764713764225,2.6734991737499851,0.51114855342563115,-0.15890400911962868,1.446527187246063,0.041929246495118505,-0.78783368281290955,-0.40749496723676731,-0.44697147757704392,-0.91593821885324078,0.078330605960761593,-0.54210176839401436,0.27879652018677459,0.44255868778875057,0.61702858290137408,0.60519707759490371,-0.067775207116467021,-0.40374436306453632,-0.21586910073969826,0.84752503381681077,0.33486488708804663,-1.082080016399104,-1.4712071722467988,-1.0098548236410867,-1.8202172535996481,1.483122235718684,-0.31642819821045143,0.5866510681146897,0.60987157278557003,-0.13309586725712744,-0.84545056154094678,0.64472823425558745,0.71669833177968623,-0.52560113885414617,1.2054103563368201,0.29485569509785331,1.2828183442303038,0.3477358936406143,1.1256500216203513,0.034223767766666607,0.18876335185649237,-0.49852961834904291,0.11677635815084135,-0.31041453083525117,0.5270175516737603,-0.22792867580134057,-0.13313564623414409,0.29495403069982062,0.38058512885224349,-1.4259892635819591,-1.3028978990895512,-0.69994948548569147,1.5010761212336554,-0.44601665850151345,-1.3813351165551218,1.2439031233564142,-1.0304299610734731,2.2461187477917957,1.0777330901480984,0.22246727617470008,1.2718271291629564,-0.3433366371912368,-1.1170387429766062,0.19206060487969692,0.64500007532639791,-0.15887966298983131,0.17767085647801031,1.7399984572686573,-0.17305746034818534,-1.2157064906779096,-1.6322102461620647,0.043302629279154167,0.49128072566757325,1.3073869875523649,-0.94225610221370448,-2.08111131205722,-0.70633711705752167,0.37381092771473901,1.5423154954445109,1.0119046971330257,0.67442037664964261,-0.12576016951342339,0.86841787911394253,-0.12381638019624888,-0.56978917733842127,0.35819149661603095,0.36472365221024727,0.08350510005517206,0.18332896976220886,-0.35958356302632388,0.89533258503571367,-0.83979386162563197,1.0418915417122188,1.194191378776422,-0.71472312622393763,-0.22973151895139837,2.1184499249678916,0.23509538807588096,0.56869760525177049,0.422424260121957,-1.351724915914555,1.0438978006205641,-0.76091996001191642,2.1668854698655031,0.88881441888462875,-0.70261049122072583,1.0546473162813432,0.8321690904650384,2.2840637114815796,-0.6695873482143303,0.2665332768761956,-0.7957527174780884,-0.15542780994491007,0.22523552520540158,-0.49681694098766416,1.4311755917440834,0.83168658457934608,0.5341468010659628,-0.45228577391275115,0.77893876654436511,-1.2472688881504961,0.39553561033195195,1.3815045386295202,1.7819547440178112,-0.35051294566062968,0.52597792429739321,-0.64286670089062803,-1.5957717577641564,0.64742743066544162,1.1934604364089725,1.2609692120316001,0.084027033099275422,-0.37607216767661161,-0.27743618176591367,-0.46084456423673376,0.67243117912987771,-1.6140563310634375,-0.72192409547741643,-0.19290124636640965,1.485793836106392,-0.4774096279528463,-0.74189502771518145,-0.43792456214443404,0.1093588042068751,1.2990011902058591,0.50432135233457565,-2.2198418694072641,1.4829877718841535,1.8297838790148266,-1.4244526814947698,-0.37644068066358832,0.88173526206409769,-1.1367964324381921,0.76136481633791231,1.3192785631989072,1.2724528130999766,-0.17581969249086404,1.5653620345233317,0.078172969985198973,-0.78484531752746367,-0.61487170334077501,1.1118098010300856,1.080494560621164,0.26816548920711786,0.53368230945181305,0.1972404622747401,0.39296615093733994,-1.5214549979271246,-0.083680111747834351,-0.56446581800722961,0.34029057459027956,0.011546388135416037,-2.7639162915753386,-0.30510842846324443,0.70381023709381862,0.33500966203442417,0.47508576849106843,-1.5068993975322809,1.8191748528431333,0.29025071800156099,-0.84033781505757288,-0.39286358567601959,-0.12527691959129625,2.3995655686305168,0.092014473856123893,3.2522782985664116,0.98502739743220191,1.0356437274621333,0.57949086000274153,0.5848964313734718,-1.1184577338665158,0.62008603209330881,1.7224445879261205,-1.8472162274711679,-0.99198758883288718,0.41137791173840565,0.53171907190405332,-0.4454711109154495,-0.35531692881124244,0.70778597832226509,0.80756602533345634,0.71754439509123569,1.2965823396760012,-0.20282807763158625,0.61505352535303848,0.13255827235066961,0.002417724080914146,0.10673740538986706,-0.98042125199333374,0.1247246160241654,-1.1930242497873216,-1.7134568665523571,-0.05100974517766213,-2.2772064359056516,-0.71150345848128349,-0.20990651486236914,-1.1155960098577127,0.1708814057332943,-1.0820727943679274,-0.073270700550570986,1.2316876054841071,0.43084315566163384,-1.1780095639471291,0.64005290895995937,-1.6244023523188595,0.015593387192872479,-0.77761666501322935,-1.5699560967480324,-0.082338783754635977,-0.043862548522523068,-0.7839894951946017,1.3051236338449956,0.21258976972145197,1.5055284601201171,-1.2015142229726854,1.753793514211383,0.58430470963608183,0.6768303826526566,0.099519269030612978,0.035331230829327862,-1.1392564781403989,-0.97468920962768213,-0.13278600953805816,-0.091251578247898812,-0.65136288639792217,-0.79466385327827138,0.49795105708196713,-0.80196781041911014,0.55631078713486848,1.1107471869964358,-0.50491553285417046,-0.083268668128376577,-0.7305631171451108,0.72693290959534096,0.12207572181569566,-1.9054468976518808,0.34524771525310222,-0.27883039201203091,-1.3430001905442213,0.24444244266197873,-0.49586884326354064,0.21820873247015951,0.2376050610617646,0.30350612778835145,0.69357211408269914,-1.2591852632555356,0.53352977711478855,-1.1339661260144913,-0.6463347123370784,1.1273566011835041,1.2150772875727207,-1.0815822786377514,0.90899704702895112,0.13137752841860498,-0.057485260627152292,0.68415967113788489,0.95210962264828825,-0.053634785055013519,0.23508500399924387,1.3028717984160478,-2.2390293284984901,0.094625431021577222,-0.69255484716983884,-1.2327618861878293,-0.54323150024902389,1.5113724314328654,0.40818229651192639,1.6004066613157832,1.4555312023368299,-0.11558512808380353,-0.15033784231481223,0.3848585722806428,0.86235407013837062,-0.60041498550763028,0.066994918240152468,1.6692191195781987,0.74403611148241633,-0.19721689674212597,1.131664335475304,0.52250665128913942,-0.47776501759516871,0.11675941639688772,0.24234774378146243,-1.2380078452908501,1.104006826424702,1.7544410970437609,0.89029770260521801,-0.84963108812849075,-1.3888619096467452,-0.52833782725893286,-0.32061800197946372,0.19660471908481428,1.0662278900873094,0.23473682311385816,-0.30833448779178552,-0.11538125240086407,-0.65503603190377846,-1.6990136480476379,-0.95148831100118658,1.9683433122611997,-0.74020313666239157,0.28634186511841531,-0.40033869121689553,1.0066920754843021,0.19251894881300438,-0.33198997014572162,-1.0655284186873324,0.54093882420757822,0.19669607075608567,-0.048728700840273149,-0.11406447691742325,1.6390359202446843,0.66933069240494636,2.324465412264169,0.12398043517080914,0.60586821863001683,-0.617054262903872,-0.97369934194355412,-0.3555386870279697,1.6009954940683495,0.65274311646499183,-0.010117142035846818,-0.71916204312354493,-0.19804769416845946,0.7784548607714783,-0.87281416717880089,0.65014919763846735,0.65932637912230974,0.20195360140471694,-1.0664944396319471,-1.3377628517793079,-0.15724778752896434,-0.68172564487194309,-0.36257043708814563,0.76882077689264938,2.1017614310381356,3.0640748664140811,-0.79125003436069563,-0.31443369491453033,1.6180374033729068,1.0525700196764916,-0.78180770297604962,-1.4329040436544465,-1.5039602161600694,0.36744713232952969,0.76355005768205098,-0.69154509240176143,0.93316635697553041,0.88246944240282343,1.478995397897908,-1.3353201402099926,-0.10692130825268512,0.16937512719313541,-1.0229978702836489,-3.2285047962995828,1.0909672171305647,1.0895024181996196,-0.71816750199770085,1.8794193518614604,-1.7684616644343223,1.1280280467023909,1.6782990141366951,1.6528035073544065,0.73877347506674385,-0.37994954368956291,-0.24089537008147294,0.15228692227641358,0.8936299636516668,0.12847694502637544,3.6594712239047738,-0.10427185565659888,0.28063779387647969,-0.91129751242770762,0.32469066642968974,0.03560118596684976,-0.91518051321640559,0.16322988639507932,-0.5960720403671862,0.37264074811526765,-1.6234071654314637,0.017215781649734248,1.973326934599914,-0.37252556539022158,-2.027700787867575,-0.69111782423224,0.82766726745853425,0.13202665127358673,-1.160679827416031,-0.60006012384458796,0.65896804764166184,-0.32510655013473089,-0.98507570422570767,-1.1290242445788603,0.87306379994985694,-0.97291968074740842,0.91943890158361474,0.38317122893956324,-0.18735756842938145,1.0455252255167033,0.57327618427983185,1.1097659689809174,-0.57530367860860832,-2.3066506198451169,0.12769637745862306,-1.3509178875381809,-1.1815722428242605,0.83998342535874515,0.43044092908737713,-1.7374366875239806,0.12721205443048816,-0.76859681904072741,-1.7933446292414208,0.41864713249061353,1.0262723437954444,2.0072221227538027,-0.033605870171115632,-0.93615066296443117,-0.41598587815621407,1.1119470387589381,-0.71725266060068726,0.50999851539728291,-0.92831842108774576,-0.17147868877004685,-0.75573827850502362,-0.50719882996064836,-0.10293858371704517,-1.0121817678965275,-1.2215662410867036,1.6293643218735931,1.4003558665289026,-0.36132586747801004,0.87196672708528478,-0.00022422063740771105,0.19900338407653909,-1.4481483213972028,0.071452184911631245,0.34662662846826914,-0.9644508282084896,-0.046376577961459525,0.99258409012767612,0.93912867357003416,-0.51463610266504001,0.24909994115703904,-2.8311699695465511,-0.06300265294094598,-0.26133925020319043,-0.57573874937406599,1.3138055787448306,-0.15917875967621969,-0.78884894800397909,1.1180278136620598,0.68540910701630742,-0.70319937193596938,-1.9413556554594218,-1.7981617226027922,-0.71160516584657896,2.2826543980205627,0.46524179500413065,0.90098532575214463,-0.64175264545292554,0.49700731707202739,-0.75631725377835779,0.1999671576153578,-0.56758661615816819,-0.1174464529815277,-0.063469367827439005,-0.73695081828516584,0.25866083955756247,1.3424852920008405,0.32038596507547745,-1.5096009573944071,2.9670539822813531,-1.4888912605220446,-1.3843588174095063,-0.7248191153099437,0.2401969634568589,-1.3010492500892588,0.26923586707463915,-0.84550845917269413,-2.0470908990449925,0.062657984729670282,1.1476635281022187,-0.95675859153956944,1.8176800592512987,-0.015563468038081851,0.037372929761321609,-0.081822819858799981,-0.52593308955794027,0.24554834558205096,0.51082940276278999,0.69222127391963095,1.0539765255357585,0.19356985381291539,0.067012038022642259,1.4741008875163832,0.062691069575793235,0.95641005051365136,-0.68189018361619502,-0.32447521523295847,0.78085594147999937,0.22695360412906421,0.0062964375703057403,-0.11805706927791411,0.67623254936182942,1.3092211373501437,-1.4682021672060017,-0.73530735784504864,-1.1009022148823528,1.3834592115549396,0.15457658326300358,2.1919889544393332,0.59311230039524854,1.704470882097866,1.3427080105183542,0.48394002513274148,0.96687854394746708,1.22665910122822,0.96861304071491683,-0.31587017476640256,-0.19570302657264974,0.068170924015669002,0.10636736338255011,-0.49659787024761737,1.1325609842577187,-0.81003042604469211,-0.75319713420093692,0.26886015981270567,-0.27662598988724829,0.87404815990287266,2.5752092461996958,-0.93077793452627156,2.2917607014994972,-0.37627723676235397,1.2224054398159343,0.2017344116232275,0.034605748169310571,-0.17256328347597411,-0.091550527847876706,-0.48973303370314264,-1.1895491939203626,2.2387261504353573,0.38123737127420293,-1.1863700610624468,0.046684790875173063,0.12837185404709439,-1.084999880439723,0.1333965365119093,-0.41934309855409596,-0.21562109462975507,-1.2711864929548411,-0.86351934211968628,-1.0847845085802685,0.45223293365801737,0.31033070723411404,0.51799609330451746,0.56100800081681002,-1.7857078830323601,-1.2313044355969902,-0.55958341519738819,0.73847538680047164,-0.7747910619291668,-1.2771864016891834,0.18841064571847621,0.047237138910019176,-1.0243641625945543,0.070249888206580152,0.32425150158264937,2.1328637231328353,0.21067901697936109,-0.91407802882476219,-0.96933629795444021,-1.2336393728033637,-0.63510811097410558,-0.59766537496878869,-1.5930169159254257,1.4816474849656287,0.11066120442670606,1.5963741559415074,-0.71573952600676571,1.5615720308190699,0.18377493897099545,0.96226360394516908,-2.4700701396374836,-1.3615620193864533,0.081912457462674379,2.1196273271538186,0.14803864234575215,0.070188570282675181,-0.97353870733496117,-0.098571818086167592,-1.2192125497919277,0.63812308243997495,-0.68960277980786178,0.82566992698028618,0.16982129118246558,1.5325140986314201,-0.28831787845788087,0.82484177420544647,0.022053163915749782,-1.1908684461414956,0.24517763396993314,-2.5173983743293586,2.2182125499444267,0.51775821617090967,1.2983607924372291,0.72764727094009607,1.7856057188836862,0.63133837555562011,-1.588590736169355,-0.71025354383730521,1.7388173289237339,-0.96238676866197326,0.14202000572437556,0.11533751545877623,1.8394922173393804,-1.0622984675786833,2.6883740561959266,-0.60546550841136537,0.41006581018912114,1.7261549482925453,-1.7855625213866078,0.11791246758470079,1.2934154887350575,0.52443842508399929,0.94427874337507045,0.91220760920328658,1.0831964067700466,-0.71668146631205387,0.84109983694127421,1.9391588580052919,-0.85869678321803478,-0.21569141099807415,1.2335091258896616,-1.3995255946356111,1.0386516810091651,-1.2161118714771508,0.22693463048104642,2.7848163837252513,1.0558153265393067,-0.70315107955918177,0.87006378895895242,0.69430625488395692,1.164813804118227,-1.4095405644566679,-0.41425206776880347,0.59665237615772082,0.32585378935038317,-1.3621579210384436,0.15324978483296864,-0.27038924434789513,0.76676461905940918,1.1726900301149701,0.62551392476207279,-1.9680973735252392,-1.8209339304125163,-2.0803333865270019,-1.316384491935586,-1.3835149600229775,-0.012486608099795276,1.488965518835722,-0.63675774400432184,-0.65778830077785921,-0.62695625734604599,-0.23925633087134529,0.10186093273578298,-1.4376902320957008,-1.1869085952981524,0.64181927193522037,-0.79235264198905486,0.019322232137326638,-0.24880718046518832,0.4510561554988744,-0.80267139849630886,0.81897646629814336,0.87528125797190137,0.398717553139048,0.74425777385662384,-0.9500563355394156,-0.056239314273427418,-2.1386986083020512,0.7097147478934237,0.55972323702358806,0.29783310877137725,0.50761725256410384,0.3562685795525195,-0.71703316044049881,-0.95255053632468512,2.5181410541575584,-0.95133797091709271,1.0069029998401562,-0.4048087784125764,-0.85446800310096871,0.70021473737468343,0.38922900682452999,0.62803768348721711,-0.55465913808784517,0.36729322357192512,-0.55969283811037518,-0.51326443503377295,-1.8291643327977187,-1.3762733407998933,-0.34638828150362544,1.2579039237174976,-0.20618924108756756,0.01767387771337308,1.2613838117053899,0.22013849241812727,-1.7805641089660753,0.14678991133454286,1.333632905912383,-0.30057447889161243,0.5018996344354798,-0.34634436033059596,-0.083434150544485317,-0.49138149512970852,-0.2036131966783202,0.39158836982551354,1.8557582849675673,-0.41230348289048685,-1.3060189275969709,0.32607619804197702,-1.2501417745082313,-2.2444876089527521,1.4895800159683688,1.5856812106162839,-0.5195395141089717,-1.2771269594664267,-2.3041850653795297,-0.68802105178035022,1.0469800063300505,0.87468911920213388,0.26084422503759297,0.1122043195693895,0.17493338724723198,-0.18954464407849214,-0.56189295360978575,-1.2379337673898989,0.91348955418316025,-0.48711577943735618,1.6214873320825023,0.72803908679173213,-0.077155956129775702,1.0933341341776015,0.28879467536223952,0.066457066883859564,-1.6954732775632353,-0.39061726957723969,-0.98081369850244238,-0.34140905188345683,0.52321953737790261,-2.7484653556146021,1.3797280367886322,0.78479280253415584,1.1198917652931333,-0.97733242033356238,0.90370246655738318,-0.64223298444995547,-1.3721141544027307,0.29440217683944592,-1.974735085013879,1.2424188668158593,-0.79513135642956967,-2.3274146250326218,-1.9988304999058939,-0.11230525418395608,-1.3434085484056402,-1.2584337318802015,-0.28841772156167639,-0.35256274596933374,0.4771906714638644,0.40372786093788426,0.69088208287530584,-0.87544614078685046,-1.2581272918765503,0.77514649027175686,1.3184026906448316,0.18088027428764528,-0.6673236671634496,0.76552785060042416,0.81519671472107424,0.34625130611207416,-0.073527676411884291,1.2276171754332164,-1.504085522876919,-0.44612650037826396,-0.10191391407671298,-1.808751249169211,-3.3772042311960098,-0.90452686816231809,1.5021754067187543,-1.3801078870862091,0.29564521532574517,0.69757368334890302,-0.31200914412812841,0.49248028135394661,-1.725943208527847,-0.91819770778329379,0.36786897116244377,0.6168412863540168,-2.3559858595098611,-0.039196196246645651,0.84869799640962074,-0.070509442226196928,-0.10324749927764525,0.41868675988645254,-0.43908735891112516,0.1815609002066608,-1.2257096815628705,0.048819286173043729,-0.24149955101777443,0.79958052151352788,-0.25173164828556899,-0.10265042185750897,-0.64965598161966887,-0.28751760240836394,1.3696694019718176,0.4910339446439364,-0.66572120565480308,0.78156796352602376,1.0508697842396613,-0.72643956285180233,-0.5701643044115472,0.2248590854114646,1.4088518649594197,0.70011448590791314,-0.039269913584220544,0.69115498244217732,0.78295710094014304,0.33812080278162121,-0.43053780423239446,1.0002988744381733,0.1019424680122669,0.70306887214330394,-0.46539137388182106,-0.90709419310233697,0.12264937594157845,-1.4940914172904438,-0.30122485505797564,-1.5678040138489817,-1.5923598861565489,0.59505471398508314,0.70061882376232498,0.73775133253510994,0.13130070000315189,-0.89537055810662713,-0.3646166551338445,-2.0869536051591764,0.093452266602810544,0.62163222419352471,-1.0974055824552602,1.5981895824158963,1.0574179176617784,-0.97099018978511964,1.2281218354592476,-1.2127372882936778,-0.21363924139652141,-0.28358609849632366,-0.20777878296411664,-1.1114177047866556,0.27624669120792883,0.36631347989383167,0.042287322134988529,-1.123456206746656,-0.54507806301561901,0.90316877567995979,-0.046631307355242686,0.37784627453753261,-0.49336872438639551,-1.7710055829636835,1.3481214535536901,-1.2712754150475807,1.5934965141970598,-1.3121457659837572,0.28133648815947493,0.64545355943950333,0.14643544880231432,0.63522912315557101,0.03123157959849043,0.040486139944781889,-1.277455119016323,2.0300515249585533,0.6425219622586632,-1.2442163347740691,-1.6614690662582632,-0.25978061641575761,0.96983192543757979,0.90010437522314568,-1.706215827093216,1.3342548882614373,-0.25975569604887766,0.76342243213686767,1.9979971985414864,-0.23368308991977169,0.79999665851735657,-0.61155201698227035,1.2871665906531502,-0.045077858196853872,1.1459025995519305,-1.7073456755094101,-0.90405870294267421,-0.71494595879521505,0.98298722952529238,-0.82430647345191843,1.0748900728641979,0.038502722275226352,-1.2128788686651824,0.12343215244897854,-0.10282493688754793,1.2124462583650832,-1.1650866895297283,0.88886805458417095,-1.6192663816003785,0.90533601400635144,0.26025301701372749,0.75585336764316002,2.4520238865501436,2.5662199580045155,0.59635903279284819,1.7606659457732219,-0.46961880964752167,-1.2706536767794432,1.4957763007205997,0.56803165899572838,-0.44955801661812095,1.9318360834214565,3.4452549220649589,1.5700394573534362,-0.61002450187153878,-0.59650690769484127,-0.85488818438861958,0.83685065299905548,-1.7496893797142581,0.95325754581567612,1.7805981059991545,1.5880044997798739,0.54195429234337489,-0.40732273059802004,-0.13375470375433726,-0.31500078439465484,-1.4146352497614119,-0.73040536236997189,-0.22348055082275792,-1.1534117091517613,0.64603412377294556,-0.24832948943618299,-0.55114612837558175,0.50520547003596983,-1.2361696661383414,0.59287897714032267,0.27021554998619252,0.58696584900975268,-0.049577313176967126,-0.93241735673419279,-1.1507779081498091,-0.54149063802906572,0.93092156021652894,3.1484522721202568,0.68169180471558843,-1.2733803838267506,-0.44573330675584422,-0.041730548783649776,0.77458440773365655,0.13560160345325481,-1.1861508226528426,0.10763295946585494,0.35156443641852669,0.7309982438873418,-1.7115503219064909,1.4136181051217991,-0.23661666538630882,0.58160811774562426,0.22702596028523206,-1.3264530150861611,-0.30192349371921123,1.5246115671649572,0.59115916923671363,-0.69536302900727542,-1.9244479271504185,0.26086457492344339,-0.7861060334425175,-0.7160201565200971,-0.0984073676375984,0.55934216247969648,0.42590541415104299,-0.20784126280959586,1.5393996915995471,-1.2521973695523447,0.66113684820041063,0.39467395539677447,0.33395199334490056,0.030591014466709733,-1.9474002399274812,-0.27504874462200524,-0.99417774475561849,1.6381419100676637,0.76633465454217564,1.6082192088229548,0.16631826284035997,1.8577472058118154,-0.17193614827570658,0.89398503521104644,1.4199036346496134,-0.37873394170408753,-0.037217127882709186,1.089032658687602,-0.0048679402661447038,0.16674652144191396,0.38108325612238303,0.51341483052434467,-1.6924111098249379,0.75893185362532189,-1.4359316802041064,-0.83359834425949064,-1.0856692577759142,-0.60623715016989976,-0.18559006321752147,1.2923072322647859,-1.7910829854595207,-1.5369350481925903,-1.4039199397507256,0.70442281671951634,2.137767752686075,-1.3330786469508216,1.04192495358772,-0.053178212814888347,1.4708282336384573,-0.99823704053644557,-0.071447836948851887,0.95399925549769549,1.780832614713,-0.53428908761905147,-0.068453402095505142,-0.074146419791451021,-0.43463599846605738,-0.34282473786259182,-0.49605128100860801,0.82024442708811995,3.2201840622917284,-0.92213059194840563,1.3304208117500786,-1.1715110639861406,0.95758878932530589,-1.1574929758656431,0.58534191344351261,0.42331176460856323,-0.18701002136538533,-0.26419519067385211,-0.76046335500865136,-0.88315553656008039,0.12683069773230546,0.72679645900830359,1.6219234924977706,0.96688766755491373,-1.5801342338402711,-0.64154244182697373,-0.68742057090805742,0.43280525437529582,0.22090781162924628,-1.1278007453137167,1.1119179780255257,0.35832870228685437,1.2744108447957618,1.581393701399578,0.72918075061204157,0.91290481814405244,-0.74665319030672317,0.70605390575102067,-0.5142881821709373,-0.16429925605474488,-2.1325439547969212,0.6502111468961369,2.4673267619008099,-1.1332589753289743,-0.60503106790264516,-0.4462020424807252,-0.94981609676211254,-1.4493290767096239,0.13507876105933836,0.29113157155250463,1.5034923607225519,-1.7060745339052079,0.59949203771245096,-0.49434430874741336,-0.51519168518721381,0.78318418762896513,0.6192623195018403,0.20578248369318364,1.122546432904141,-0.91143666426623116,-1.4378642659126046,0.85169520832060186,-0.99795762878698691,0.79997427953042621,-1.8812908508947246,-0.77302039738810913,-0.20193991988985574,1.6906863028453634,1.4991548780661199,0.45844508397876577,-0.63469400273981647,1.6022524603505814,-0.63949081368467164,-0.49040884885128172,-1.176760571451922,0.90028548415321785,0.010257132397850536,1.4748072834494355,0.83729399346577249,-1.1677284898483615,0.93726446296736043,0.65765361589256821,-0.88295652556888282,1.2869561544575712,0.4415764494779712,0.8725624361776636,-0.17781507110505956,-0.59013579683192452,-0.24952030085756741,1.067725704033508,-0.33863314215176105,1.0978249433421854,0.91026264452723182,-0.52401634291309562,-0.71515040458803947,-0.1127605164911496,-0.39120918649501929,-0.41784169093897727,0.61996042698668963,-1.0823045139709444,-0.72063189048247167,-0.37235525191873553,0.32387600403392058,0.4084285653043852,2.3329777590316878,-0.23618171437187263,-1.089368397017332,-0.54540059894925363,0.04501654259674373,0.40082702644292612,0.41756876915577196,-0.82386323770811742,0.91353217732245728,0.93467327194854621,-0.13686043298219649,0.93013874526501439,0.56148394204044572,-0.37167891429317279,1.2085480317992003,-0.78876095554259384,-0.38016862186233757,0.71005897227449954,1.2257608383386633,-0.02267294149748986,0.90665727080642244,-1.0627659991344729,-1.471116192304746,0.44829816414017282,-2.3783800465902973,0.83146925126388826,-0.42883819776337717,0.67769448432264501,-1.3806089443028755,1.0663587804225816,1.6373641929118208,1.0367161350488854,1.0898056592009326,-0.13906959638185065,1.8305843831812565,0.080558660768110399,1.9922310836168811,-1.022699829767507,0.97325630793538398,2.6801343819321004,0.16798103701374195,0.47331284179396388,-1.8908555401482774,1.7457496064400915,-0.28733877488082926,-0.54759541274106072,-0.26552944476153917,1.7547415302877349,-1.2852462968476837,0.096644171136912316,0.64086699881173792,-0.002999856455389565,0.94054372114612383,-0.15999910034876005,0.66969945619286386,0.81170919663379948,-0.51437882029117643,-0.41704215597638727,0.57493939171878772,-0.34493116545032898,-1.0351680656924487,0.030041017430882198,-0.13381359977640689,1.2535450960330332,-1.3456697973264182,-0.013411601235065634,-1.1090842597291832,-0.2633898464894957,-1.1652438808426078,-0.048616241300259141,0.27850834198525476,-0.92274996172542656,-0.58031706989398724,0.28548605832223195,1.4970847092494495,0.029894791332824699,2.9082997122482896,0.72604660075758232,0.49113254607106044,-0.92380522200250026,0.27023436737063361,0.25747719579391454,1.7135987892665285,0.27658980666417055,0.1157335828165906,-0.32742816020325494,-0.13687381542686822,-0.058127408596487622,-1.1469362560583722,0.13883012914062581,-1.4145674820501801,0.55559319695697063,0.93816099637675976,-1.4654586682120627,-0.46982024282760676,0.0028889650235601519,0.17926468874937196,-0.95775826034337774,-0.99850554854231499,-0.71112813264154062,-0.82491714269397798,-0.771831425733428,1.7567483844529344,0.91397439488101695,0.41199375683000067,-1.6900523093016322,0.81706055173181791,0.059801637840097864,0.06872459231309197,-0.29399983091522675,-0.067912081246846251,-0.0056093336908738444,-1.1651755672722548,-0.81060197931169542,-0.46473469137142781,0.46219777930485023,1.1273485672281622,1.4195591649812431,0.13148044427560612,-1.6452439639099155,-1.2202676801078909,-0.21968355627335764,0.15989146975697646,0.4148161298939449,1.2401492126864868,0.39959055867048515,-1.268664033953705,0.25686800517087355,0.98434669866676627,0.24726237008681032,0.32378131210665284,-0.45022940628626146,-0.5485955751564211,-0.99122167937593164,0.44441901975117126,0.51682081943038116,-0.71481161696664874,-0.0035655576650672031,-0.15294373643080322,0.88027114184001376,-1.1342575983411978,0.68790593920611109,-0.3406978222218579,-0.79119848328567222,0.41049222758433168,0.42182763417723262,0.29218858868712611,-1.3887048649372398,2.4725502695936687,-1.7663830938372711,0.10627146837306531,0.8676396894625974,0.31317720032102686,0.050990101292555851,2.2838434998299815,-1.1132358943274776,-1.016745035838488,-0.35500762738227409,0.75488153160860749,-0.24930177615657995,-0.22167374889812846,-0.54311718034354406,-0.72750052145088551,-0.51889261154695832,0.52027139323764293,-1.0362980607796455,-0.25018884381172024,0.24914907756809065,1.4357129248533234,1.9003779225524275,1.276742916019741,0.06208323564106627,-0.71312974139773422,-0.62653174267908263,-0.54038602305698114,-0.97011632844886819,-1.0022220637416293,0.08534273076842315,-0.042845180943025529,-0.10509416587590392,1.1159854128413986,-0.30679568519584399,-0.56542686795925368,0.74899299811334563,-0.38482773703574202,-0.44966761259263549,0.01225485966516336,2.3275379337115885,0.55492602520939693,-0.83866480971523283,1.1400972997002796,-0.80943465200906095,0.88838284052288763,0.75460398035217002,-1.2086977423370964,0.91479028345892832,1.2915355978485246,1.2891216220422987,0.30598624717643069,0.15687578183850021,-0.67848240576097496,-0.33324053563478562,0.53052071865075645,0.6954804028152306,-0.83102731457208112,0.5403868997461706,-0.62948289796930978,0.30780806781280723,1.9590255212821233,-0.75537166253562871,0.38245103811182635,1.4020056272104175,-0.075952698648478589,0.91767298044946999,-1.6235484098544899,-1.7429737586053278,-1.3881564541625182,-1.1311881101766348,1.5085400997217535,-1.6352078976395985,0.71626965897008843,1.4613292231780106,2.4233902814207497,2.3539045681863278,1.3702725480957514,0.60014152845359847,0.16380836044290695,-0.2207315287275374,-0.73970401592791024,0.38856978837869816,1.1064623714757267,-1.170172204666909,3.3653410882073551,-0.86855178152910362,0.34364820188177159,1.3309078785600581,0.16117949794410164,-0.13549293536801926,0.40175050311837357,-0.44699255930747772,-0.0034839810487779731,0.67153477981436349,0.8161509328677865,3.4887514243259399,-0.86869062058027879,-0.16708663520139269,-1.1144185944196519,-0.039991254585243892,1.0018646265079851,0.15364143469818348,2.188677185166565,-1.1381115790700727,-0.57714236873416502,0.34684313671933498,0.81123404003403188,0.51594009184619449,-0.98388140982600192,-1.0040138328371735,-0.63360838684789011,0.88139118135495131,-0.50813409434619028,-0.73030030637499377,0.38872519394620719,-0.37514953089308595,-0.12287601893872473,-0.67809904726118908,1.135624384849778,1.3388320320466578,1.1457594211340845,0.2829673880612163,-0.80409806922754068,1.4225310746389572,0.85543671350801143,-0.14088703109955783,-1.0274692236165128,-0.34609227230650491,0.9315844380103524,-0.58074089985753452,-0.36223979520864602,0.89638680394135928,1.1281490906613509,0.50279221922474737,0.55754892627110253,-0.86168524242503919,-1.5209802565798667,2.4244071759983918,1.153810330592862,0.4436863369770081,-0.4690923062239567,1.1760645336137039,-0.19910565413858117,-0.96630659245457973,-1.053420072698781,1.0322268577823801,-0.86287310239661352,0.27818210786482628,-1.2519342866657859,-0.96649148164760945,-1.1059556977356197,-0.28053684925365108,0.36427136553365475,-1.182933763051085,0.82503839348301578,0.66998518202438706,0.41169375602176295,-0.77276680026170352,0.81113428380324049,-1.5394235843857491,-1.2499108408188417,0.38886303536579553,0.27521728662453115,1.5828735928578717,0.062048798450480475,-0.31581629956548835,1.1427625113082649,-0.93328491520914614,-0.44254684427042468,0.089778738905619104,-0.71587036406003191,-0.21879514897072089,0.43220430482610755,0.49721661266632955,-0.10830535536809024,0.40454598283731796,2.8042404065909277,-0.80806064549605505,-0.011702789935467667,-0.25949755531534363,-1.492054977059672,0.08909598833942324,0.02170773650850431,-1.1934776697786773,-0.14733294616333864,0.71130513539219364,-1.2866152542498455,0.46395855782296624,-1.5029651934889701,-0.42954009137634336,2.1440588630652422,0.38306474437111265,0.74287044692126625,0.24602862066846051,-1.4702517953196632,-0.71465726617583947,0.10947711412427014,-0.56777795686604615,2.1753089723719357,0.65535191794333136,1.3025832339331438,0.090467061130152029,-0.060941073103815288,1.3078191806378496,-0.032575942473974905,0.095505636785837927,0.085571779767699099,-0.19829237121741433,0.47546582272820614,0.30859203185191303,-0.4979472249591943,-0.38099638994917689,1.3759569816869111,1.5633176143955054,-0.080590340661577317,0.10950237115519695,0.0012486964171715353,0.37019530704008718,-1.7858737106851716,0.63938307708132436,0.21102687873885273,0.66511960595587827,-1.0114255513207444,2.2583416825969156,-0.99427992342101512,0.72436384997708236,2.7927751163611219,0.92795357443329252,1.2892317357346874,1.3371936482327147,1.2948399301875131,1.1321426638025103,-0.29367389564111124,-2.1342749024246257,-0.55919156924546742,-0.47558628865640529,-1.5213006479758124,-0.67038784442191846,-0.64253129583094415,-0.13577771775595521,-1.0084540840481133,0.97725519681974593,-1.5084106954668148,0.20675719709452506,-0.5230873266127356,0.33519224157836697,0.99565951684760234,-0.3439813072833684,1.0165161477669955,0.42511130697537769,0.91585074869203786,0.86930457736525657,2.2350862249789007,1.2716415349016594,0.67930583385140753,-0.20420217918439934,-0.77784409951249289,0.098521682610055158,0.30028211661052384,1.303776911473991,-0.30367190263056848,-1.2022431816291608,0.65159321205467136,-1.3025728947677147,-0.26984060388311942,-0.52554716030068849,-0.12744611894576968,-2.6240413482300311,1.5724722627897718,-0.88537293330627054,1.2250976071292314,0.90867848712629307,-0.54202280956619664,0.16793333236889901,1.8173755763016151,-0.071790229238330172,-0.36823080347364345,-0.090401508619312843,0.98302370422152341,-0.76985370238726081,-0.35845616201457303,1.3818234596618959,-0.96093350961456081,0.2504889966867076,-2.0090442525674721,0.50997836832423815,-0.68014101430928342,-0.43960720401965281,-0.36415318533877766,1.1379301157578123,-0.80305477869413722,1.194831697334193,-0.62041888630521058,-0.44109086238263906,1.1764739283447059,-0.29274094130745992,-0.45602771302529177,1.0568537083396852,0.076763468779186383,0.27912744872530892,1.3099579040258771,-0.53645425985313877,-0.1676644382324734,-0.30484277091742601,1.6108440681457759,0.093623646106171757,0.35538974751299496,0.53637343583514507,1.0069787241724399,-0.15985185199614571,1.3383953820149825,0.61603104124658647,1.3166910429778755,-0.033532305963592794,1.4724259170459328,0.49801068535548526,-0.93184351773304852,1.8412931226765474,-0.9060512414168449,0.41238185069436506,-1.0278774495733141,0.50892186917986271,1.5420523221988036,0.4169024343876554,0.11020812878119478,-0.50312018079050691,0.26028137932985684,1.8588722636850601,0.9905885148065684,1.0584949103234416,-1.7189724979304071,1.0068874934793333,0.66124525637095877,-0.85067863722386661,-0.095308425812689543,-1.5530770383841845,-1.3710094160963344,0.79107728044579062,-1.2382508348467351,-0.57716134795071916,0.89247399582249887,-2.4038107383091658,-1.0527496969696206,0.62016191793987507,-1.4107151571667478,-0.32047161816977726,1.4505686308382828,0.63063826445196935,-1.4301931137500261,-0.13526953597877039,-0.27386450667506679,-0.23160062834655012,-0.77388800571128313,0.84655732391577354,0.13846216619016469,1.6781351096768682,-0.063389484718018266,0.13692556932392758,0.056212427316193449,-0.054758359434472943,-0.071073580247201104,-1.7541502316724786,1.8712327802414104,0.56207823719571681,0.74111431213623302,0.28852692504887001,1.400185454293924,1.3405308963875699,-0.91141258644176859,1.49885781670464,-0.64214876551543898,-0.28579065553390115,-0.29037092475947029,0.54984016852457029,0.30538634174449014,0.50161084557806768,0.63421719889455386,1.3959403531005805,-1.0852728201457824,-0.016103760228583643,0.65925073912191334,1.2343329373736807,0.77282768454510253,0.5062716080637496,-0.010192914547036424,0.61474280174604434,-1.7694444339502144,0.42430930974220132,-0.3712982171111332,0.27969295143529049,-0.64563911308245836,0.7608614805849061,-1.2087978117319031,0.4778487346065714,-1.6524409497088683,1.2771132246027643,0.88107256239077414,0.031647713181953398,0.024037207325407966,1.0103023144182992,0.40363009842160136,-0.11295606379416967,-0.99661400684766865,0.17378823390950557,1.5043302129792635,-0.17406036860995533,-0.83918601497057155,2.3652812602110109,2.3882861701272606,-0.59564797592566976,1.374238980454318,-0.90044912172451086,0.26100747428103355,-1.0410782514657204,-0.93790604320864479,0.11151935981500782,-0.055352424124863256,0.4148690873374799,-0.35893281334157368,-0.50100589017952379,-0.74269056934895938,0.75167142480272309,-0.75654136986634934,-0.58033411423080417,1.6915293707003649,0.12344358415320079,0.24715210841099017,-0.079092558335296562,-0.78259447491938761,1.9958974023847869,-0.13273689293645738,-0.4459658931684683,1.1725347800936388,-0.43218224781533426,0.40276077172928959,0.81461141369300183,-0.78116404706512388,0.77340107170341033,-0.34990061103376563,1.2949049302614299,-0.67437241404121584,0.37819762105210858,0.32207772432927778,0.39116233007307261,-0.33549741654253096,-0.10816897855415461,0.38320223605791848,1.4207160124102334,1.9064144441088082,0.48777905988615122,-2.738703110471671,-1.0182918608985276,0.77917655697814381,1.9672931178328528,-1.2173388034261601,0.3095574838489909,-0.035479019870073507,0.54781350300320419,1.4981087551647261,-0.21200328738431548,-0.64797417696124038,1.1378185194660868,1.4991058342136641,1.7885648383852406,-2.3168703461516298,-0.066613507740528669,-0.0050215602950688266,2.2779847032036997,-1.9329327573182471,1.3198376049444638,1.7724737599727487,-2.111990572356214,0.045883695119306372,1.5375604001652026,0.15362407340546119,-0.80209012196376916,0.87962756725340707,-0.52118117565832978,-1.0853762497391439,-0.25437171137365278,0.26795098824235897,0.71433952996985217,-0.91998415920284327,-1.3922658906284737,0.91046284352012274,0.21856693120398757,-1.8232810171238347,-0.31667081843656297,0.54033861894602975,-0.83530508018782479,-0.62092243640682432,0.90873988633358072,0.41452811983320631,-1.1450501817662715,-0.71043918039011877,-0.31445749383217969,0.95747928248918757,0.5821330450217872,-0.14972826337546905,-0.042487706526017001,-0.24757665594443121,0.73060123127893595,0.29401018716401628,0.29846527707846976,0.65411621001536102,0.30820429716893516,-0.1958932451672368,0.43165913837304304,0.48553969167514976,-3.0966045249662661,0.96087918749922163,0.50817030422401321,0.096891385075198705,0.13413613333192095,-1.652358144049128,0.32152782337605368,-1.315850991948923,1.2168377941316963,0.32199733455428403,0.68791346240769524,2.841803640762357,0.31038721979071787,0.15354708369839024,-0.84041504000763823,-1.0697883576952971,-0.26115372921939178,1.8688285304830441,0.10913120785575103,-0.11747864290132616,0.32402946912559338,0.4897965102858518,-0.41705569155074579,0.82930310628964732,-0.94880430026161411,0.5409561571120205,-1.5324115471149222,-0.38719573213997449,1.1227696902184079,-0.060766772241402936,-0.51591274129658737,-1.1949041985572677,0.81414382871350466,-0.23160226630293163,-0.70799887966355934,-0.37943227387744094,1.2342882060286202,0.69755333586823676,-0.39376140112321528,2.1618957750346652,-0.47798563614637907,0.5692558798366304,-1.0098792533745498,-0.87357298799835348,-3.7540690981923426,-0.065500937553546301,0.37366490240577477,-0.39986938433545166,0.44485916249068441,-0.15612619290632435,1.9701445949284759,1.0318057974146324,1.260599806769606,-0.047077190001698535,0.53391744896299831,0.36755578086248558,-2.960360345513914,-0.26873868722298094,-0.25061186260125951,-0.92953924942659449,0.89273517028039562,-1.2641806601242056,-0.19480616218901325,-1.2867848907138306,-0.17454441529820736,0.42336294973131655,1.0049173584291009,0.4094010427928742,0.50994563814093441,-1.3108763702274813,-0.83044702554604233,0.54955830745381762,-1.6211229224638526,-1.0275062825640811,-0.037864888969220342,-0.15876188560077401,1.1345655677780162,0.84320761725005311,-1.0705676999303144,-0.082947527665126558,0.24077871395666614,-0.22092198727398171,0.34493792640097504,0.63512528585544992,-0.050426747132131737,-0.82344011239410009,0.31560997677515829,1.0255435768476164,0.36015547034265583,-0.76202482788361303,-1.1005800725125368,1.1274602432734402,1.4222623330457624,1.3941402962436811,0.99088068722854405,0.29203399820566661,-0.34246696658773912,0.016399948193397351,1.9799284175706757,0.45828606878242506,-0.42325863898890154,0.68695537854012134,-0.98584265821927064,0.46899491779815999,-0.076264335491703986,-0.28490793056534713,0.68972352677789883,-0.91514195339921633,-0.03879874063562657,0.42904479475867163,-1.1229653779764781,0.81776790387657439,1.6175349858487191,-1.0312356531394116,0.32824284385276742,0.37437120270946445,1.5990013121749462,-0.49912159881290347,-2.2545079179753733,-0.39705036094122864,1.5374052767448469,-0.088132333589859252,-0.59233962977918531,-0.79165570018562037,0.73991107638249254,0.86913628416765643,-0.71570645113376663,0.085152337050562327,0.41215722487654927,0.037647355490450736,-0.84165419516305506,-0.25954318150666605,-0.47332646322483712,0.40470171711710773,1.0113470305885894,0.71496822460605491,0.11442205170233065,1.2419866171452068,0.36576186493154628,-0.16938855976841716,-0.081706106802143297,-0.58585381679267501,1.0383298043434073,-0.16778862624861571,-0.24863249487684969,-0.17065289725031216,0.064765685668519896,-0.74619719238639504,0.099880864131536226,0.94401080145938465,-0.19964427592632472,-0.10426865175316653,1.3866857790348162,-1.0263686145526871,-0.90412370319821567,-1.237127770590611,0.84754947818073345,-0.32361537999582363,-0.79636054325780681,-0.79004950660134743,1.2641304005061429,0.066849186551597037,-0.71812449321948379,0.52247589925464133,0.29264177905465594,-0.87174639974979651,0.59696279015152243,0.11515049054409134,0.38517367203958475,0.018654527389010904,0.2371722873099818,0.13075689161577575,0.6088173614573108,-0.97501568591046173,1.4119375206865521,-2.0141004133220819,-0.92328705811297285,1.0134127565725324,-0.73590581088512563,-1.0847404226449864,1.7638225733881931,1.8662611490726699,-1.4493351579371434,0.98146908891272733,-0.13212676333250445,-1.1952398143180882,-1.096578103690121,0.29918070240855521,0.074958395059456492,1.4403244251747704,1.1371946276687741,-0.95330264688145994,-1.146208090718726,-1.69844202459277,-1.1727148493681419,-0.71051076789196477,0.52588693645671813,-0.17812149497366131,-0.48623975340117326,-1.911655906257681,0.9403485629228886,-0.95319660181286481,-0.38036920719550854,0.42791034376841336,-0.28132961975845427,0.27337354515029133,-0.96971801984066719,0.43911199819204849,0.25335283449500773,0.47984062555525536,-0.73945432483826723,-1.2478750388990418,0.84226989861087498,0.16415335954508314,2.5198148613493347,1.128624411802944,0.34477750829374759,-0.23559226874422162,2.0988390240329635,0.33465844423328966,0.35303256881674466,-0.97172544794489268,0.52442791163469038,1.0906511045758247,-0.44011387911039446,2.1010557881963652,1.3501266659926545,0.29655130502818422,0.6440284262206204,-1.5747539634500443,1.6522576196460519,-0.75252386948792338,0.91980893415777731,0.60432360088048143,0.7593974927392515,1.7215043126452687,-0.20634307806042831,-0.99576956404406836,0.068722121919814305,-0.84165079717937863,-0.60447918532012945,0.61651475900061103,2.7703255585942732,-2.2575979373053139,-0.16703328424003688,-0.3385114893486616,1.1712889511201181,0.7521980065374787,-0.11553504022722665,-1.9571171329524926,-1.6670384027739364,0.41945595301578503,-0.26010371407880861,0.33776910819402117,0.10998232813823178,0.13878079784515099,-0.25906678448999026,1.0907913323094105,-0.93114920897638431,-0.099125897049844647,0.49550704205263968,-1.2809031309799679,1.1063983764558054,0.76119101656685928,-0.47708254203642159,0.60259186744568749,0.41277311341025774,-2.2799597592361462,0.81643381340523979,1.2560780937697544,-0.57475661319371363,1.5876991040272062,2.2418748399364827,0.32388121963075117,0.92068807661280849,1.3718235691205414,1.1497963310340424,-0.49183678853966478,0.30973296807197515,-1.2274165902362626,-1.1947414654244943,0.64857684978000685,-0.3985056744176777,0.097182086027023037,1.2296297239281908,0.88959911914010925,1.7514870197799637,0.16975627477830812,-0.049824813466219843,0.083742110606422948,-0.67035837391163378,-0.28899723647555642,1.3991517363100481,0.71929943669849983,-0.013131053602765229,-0.17595186499408599,-0.5665342444576551,0.68808635465760803,-0.20952863521537046,-1.7692619493912547,-0.54658708569371861,-1.8224815690325198,-1.5694190955648222,1.4058599843929833,0.52628267620211278,0.55515627479631446,0.65321254680519636,-2.1351259053178175,1.8626267155522414,1.4384282825998702,-0.20223273632106645,2.2571318976725485,-0.82795545757228517,1.729906620295204,0.09481657081499216,-0.23177813954681817,-1.8625857976213285,-0.47198682108353424,-0.26736099492942544,0.034462188074005896,-0.87585641468018383,0.075966633118777979,0.16180727695027938,1.314840735869458,1.1048955052949463,1.353776831909236,1.7664103061968917,-0.44859078613748055,0.18221561633765387,0.33554626602232018,0.51012309204907047,0.30029814957030226,-0.61734894818155395,1.9676892072187679,1.1703265659445443,0.62632924186971084,-0.8673252204180345,0.14408381902482378,1.4008828436080929,-0.72741900763014478,-0.3785840309762159,-0.63381323298481351,1.529995353192332,1.673895954343066,-0.10337816252593496,-0.1713032177077031,0.84215017707138629,0.080472186822257846,-0.92903024404910006,2.6974653397764627,0.23428050273933562,-0.060655427627050722,0.81299820611609586,-1.9880494336649779,-0.32906071931998077,0.46421346603065466,0.57887394759030064,0.59944195035464598,0.72714812420397945,0.46722510476886631,-0.68842690609916446,0.11826330406307721,-0.43370348608760384,-0.40504936680617154,-0.295962836647226,-0.97384559074544175,0.19796515608001525,-0.83699639730076025,1.2347981274633457,-1.3911984179610328,-0.12067691224726627,1.0235029829544278,1.274203193146868,0.67531188565451772,-1.4094158658291498,-0.13967751896420197,-0.57011863926603035,-1.5055523542069889,0.55770692806401601,-0.22026363485192799,0.41046988314991723,2.0572585822933487,2.0950417501521446,-1.7866296725774962,-0.43882165968422349,0.16362635279209042,-0.50886193375283406
