0.48459296545635117,-0.75561423683764872,-0.27529425101049781,-0.94252491087495405,-0.37726358013637373,-0.33912684319154857,0.78030773513375562,0.63595118465113809,-0.40707662843327347,0.27860241663307145,-0.41972975812452223,0.10505291645138148,0.35559873432934713,0.38769699116469819,-0.12376215564217856,0.090090394746743074,-0.71202152273602859,0.29982171242326594,1.8778656666866227,0.7089014146700342,0.7957658839644105,0.16762822030465421,-1.1036751602894828,1.0046434087876437,0.035805245405344681,-0.30990355105407419,0.019688221419579665,0.94183147606345252,0.80453644417181702,-0.8122836081111291,-1.290794919340577,-1.031012970452954,1.0178160228720634,-1.6656340859399361,-0.72939437953491659,-0.96681831274130492,-0.83063460181034188,1.3920249320959612,2.7540286941928844,1.9148580234851036,-0.54108491239789025,1.9882210198375756,-1.4109104553289722,0.85980081525438667,-0.063713056607678856,-0.20794892352635852,0.44963992092971272,-0.86245621602669709,-2.1540833231613106,1.5469797151121567,1.929351742105343,0.65590677746950909,-1.5296562627751442,-0.79966690918691485,1.4195194063947705,-0.074839390221405969,-1.009139350687094,-0.10072595375620647,1.4109975765526621,-0.33952163162287652,-0.55471401243614771,-2.386461623725832,0.35532372347772861,-0.21207037938847306,1.3319126743976288,0.037430497562493663,-0.44562850029680379,0.78728129851209672,-0.17513930528551494,0.062553006557024546,0.57240698913283916,-1.3062938672266822,0.85297575152384042,-2.4951897532822693,1.1567637731227527,-0.83246195664888478,0.99143586512736426,-0.78315190224880327,1.115523507775853,-0.51550590100941873,-0.053233107726117307,-0.51216044351808998,-0.94630284577502755,-0.84009127424447871,1.354650404423098,-0.93077815473930492,-0.58281945348726216,-0.037245192585141133,0.70931533830539573,0.73559021962954296,0.41826217692305612,-0.021085149652517784,0.9890614189756195,-0.3753859999189238,-1.3553398276529922,-2.3363463496149777,-0.9528178977237769,-0.42500788715671878,-0.22064384240750454,-0.83596864452130526,0.40100057613795864,1.1306675429082065,-0.23548112567647034,-0.67676339615223191,0.053149492763873277,0.27465815380793701,-0.093801839547957067,-1.2561871732913652,-0.42981951278125508,-1.5290871373089023,0.54874369163117109,-1.6283575610899992,-0.11338598251419434,-0.4152741552836241,-0.26651603196340762,1.0620186086463799,-0.98725391273107777,-1.1718059577881603,-0.0013075913404033319,-1.3503154461132092,0.32120694518149828,-0.10940382146723372,0.63403275979313978,-0.083111791694234147,0.75359263834272938,-0.18736515252462121,0.36524016099067524,-0.16028297072753153,-0.67927756482704338,-0.78298168100085119,0.21083992288870043,1.0568021692666982,-0.81883367630282733,-0.090228936215564187,0.72659529618576202,-0.14337218192610274,-1.8895415967673004,-1.2672360570087986,-0.55804900616971698,0.31288667417495541,-1.0950975076957392,0.80985520962597413,0.075471028420997011,0.13877685442858992,-0.86508484235429706,-0.60025030880876651,-2.3160702845142884,-1.4781718367383567,-1.5353262151961296,0.86685441142153852,-0.88907327594072738,0.6353741010991254,-0.057562988676912688,-0.5374583981487594,1.3322281977136934,-0.0067284252843727308,-1.1020018632423838,-0.1437755023606995,-0.052088358175241961,-0.46745777566804658,-0.5827853893897218,-0.7867694331620394,0.23863984222337756,0.042641795225458724,-0.14889877914980329,0.56956883401616165,0.97663755874907898,0.79719549546799984,-1.1786106083296592,1.1012926244968182,0.43939177471344854,0.089917310403114195,2.1457564924008157,-1.3036173900804859,1.2190343838073194,-0.9830309008355953,0.035168240562865716,1.9661229294888256,-0.20192555862056522,-0.68869722664573252,-1.8781415778924171,-0.41247316858105515,0.51105943655435027,1.6625335916919683,-0.32534696537310204,0.25521312426334675,0.20563901707694293,0.54951699368159135,-0.96599367440158557,-1.1218877262042448,-0.96801507757034122,-0.66799291624141877,0.6960013074831346,-0.71447353690233883,1.0189671345979818,0.38046233057511508,-0.092293481667261257,0.049835444065580194,-0.29814152186171788,-0.94034382802721195,0.12132953567051978,-0.16910671710775493,-1.4453989232362021,1.1531726615705378,0.84601761233325823,-0.46513567839485137,-0.85988036719708494,-0.5174161293830456,1.4867315099751921,0.66951764168252459,-0.22686367751382916,-2.46572702031022,2.0681207892690994,0.10246086900204589,1.3327246147564673,-0.87376776866148487,0.33249641267551039,0.28942697819379287,-1.4498343096879835,1.1437603575103006,-0.17331312621820064,0.28631282212040643,-1.4545266759207689,0.15012414483914596,-0.34652261207842971,0.025814164511655149,-1.5056880211358283,-0.35403462916824263,-0.078532488983031515,0.66044039612841765,-1.2589155340022324,-1.9029197948692143,0.91882306443686212,1.313776990047459,0.010697931347714396,0.63416536915469646,-0.19764963288779452,-1.2089411145630822,-0.68316183956417298,0.35615087961449526,0.539772583048159,1.2552534789442118,2.8231638524140177,-2.5570840544192199,0.11653790041489867,-0.20604228450584114,0.55689159740483407,-1.7335122170322106,-0.0046039723256987384,-1.235690077683518,0.29320653516650336,-1.8836111631910688,1.0230458373605689,0.71091995628747529,0.40725929766376745,-2.0481952510663839,-0.22531636364721272,-0.51899325058141454,-0.020207479143202089,-0.79724416959549416,0.87796108037409548,-1.4740789668488492,-0.80407552188654363,-0.148262285070868,-1.3976671769996121,2.1399593506530974,-1.4254197439160181,-0.38693280255600981,0.44038868091375311,1.0914186864768003,-0.18998815126494831,-0.88645836435598302,0.11046493545917895,0.63460440892137371,-0.62291879039419307,-0.36725387921867719,-0.5828489605892242,0.56854690530264929,-1.8459341462123138,0.65645535495976415,-0.79082477139796226,-1.4355712175018291,1.0886984145232061,0.2988993423155018,0.56729102870125059,0.36653375765425916,0.09695169665859546,0.6210158046117209,0.78293654369100285,-0.84249508863239375,0.26882004232949253,-0.9407525334925545,0.71314671363615334,-1.1871398097451686,-0.66353360324679855,0.25298796586115296,-0.7071674260043681,1.2433600733639749,0.56886691159657743,-0.98846879347110728,1.0233633229404524,1.1989477384416658,-1.6930036489460429,0.23307526780119667,0.47302136984212317,-0.74104958325764481,-0.72055734268310445,1.0914584735124542,0.69868127800887425,-0.41695999794299199,-2.13079002084493,-1.117382534076734,-0.74809857087394871,0.4706354226612211,0.6886031694917425,1.0145939734927589,-1.5156867099748463,-0.18026585007471105,-1.6747341420995558,0.52764367378266175,-0.34981199485184566,-0.73305697426383476,0.10056485501094456,1.3383374841473681,1.7430793372003528,-1.2395971016643825,-1.8681016823163641,-0.32493486725127885,3.2365982110335385,-0.96951521158920084,-0.63261606392755487,-0.82590611825208604,-0.85922298968547062,0.29554456772696924,0.67390664921852095,0.69492124503865571,0.07664899506069725,1.0345304856775843,0.72507945956656727,0.29175447768019008,0.45414294329728178,0.71543695624668469,-2.6487958023849045,0.40389596213311779,0.9541076267922749,0.058919621082759895,2.5276941861975213,-0.39996477439579314,-0.54942908743993679,-0.80497130137649231,0.79777081552120011,-1.1002002628549781,-0.13812438856461648,0.77035736123474197,1.1445775015624917,-1.4904765236543485,1.6081329631993819,-1.1474377450247415,-0.73084284764323193,-0.14190708660636747,0.18044371929433844,0.56891757251246333,-0.78279394561971216,1.8855622813237369,-0.99401571608827244,-0.63258119587049988,-1.1874134739433935,0.55577009774804909,1.9635509146517107,-0.63903482595285344,0.94503828651128896,-0.75257523145634708,-0.061098642552228515,0.041227584411720315,-0.049049501737254544,0.34802622700067448,1.3717909167120304,0.82530564904804171,0.1924125534089251,-0.093316774962881516,0.71415948466119994,-2.20516045881525,1.9137013708056572,1.4263788433551758,1.0823405412043965,-0.20772192197582345,0.46079162900263859,-0.067977444569604958,1.0528007515974993,0.64280865990828484,0.045847299435817168,0.24975252035672527,-0.16589073623418873,-0.47600893763801427,-0.0084894963498734679,0.49823636125282761,-0.4574291568346362,-0.19578107390799207,-2.4550767482827456,-0.43824327791051232,-1.4582246699827963,-0.98893977161092594,-2.1813837438057875,0.72633158558735778,-0.29396533204359471,-0.13490608714374605,-0.78469378706170578,-1.1440426032849529,0.31653592649364276,-0.041124350048619647,-1.0517035149444416,0.15916544913006395,0.23707084305494278,-0.16429543497453888,0.88785904664910897,1.3893073654484023,0.9227449227733624,0.45628685267391389,-0.7305954403544106,0.66372166855130488,1.8116485525361852,-1.2433949736111696,-0.34343302084661137,-1.105974021076001,1.1773566683064598,1.0868302354499433,1.0777812897966863,1.4609176218439419,-0.64191843239420721,0.36347944850474723,-0.78352343472997144,1.2659990337654199,0.14606859851919815,-0.69354609944341772,0.23546437909194146,1.3388006189331911,-0.24088251056640397,0.72404146042224138,1.4818541783690542,-0.10552833595103765,-0.33725541740540871,-0.78106875903823625,0.67235046521221442,1.0313102256232511,0.51499762485445122,1.7621514070813771,0.0058017590090277925,2.6650761237967213,-0.70001454454346546,-0.23117955016062716,1.113041451773874,-0.42622481520311079,-0.5003133474812691,-0.36539763219730209,-1.7277625602396685,-1.2819790316611779,-0.18114478499186185,0.18806892834865802,-0.072133468809266452,1.246600886409444,0.39894712875052551,0.013320670132898463,-0.74999182500410344,-1.8076544120077394,1.4701583489975101,-0.4947605607311989,0.74193662288833429,0.055594000451695297,-1.4548493884519251,0.34434167513899716,1.0535436491614636,-1.2795216877443438,-0.34356512274723378,0.86623168919446425,-0.28303815050274261,1.2786945926135334,-1.2891108470372565,2.295565979874731,1.5189671849278936,-0.63436930148819659,0.20773232574853187,-0.52384704685268468,0.91060672647869967,0.68044958621215335,1.5587290950951134,0.43975385769985614,-1.6371549152632483,-1.3814260257182063,0.84024741154404559,0.10119768308578181,-0.30218826381609382,-0.65540702161011777,1.9234967906159932,0.067263312762489313,-2.2392389656356406,1.3580644288215846,-0.62063808842851187,-0.1528363541179836,0.17161069048675476,-0.011600300710533355,0.57998600714671311,-2.119097808625658,-0.93923133326572816,0.64575207693931269,-1.1447285175012034,-2.058837394678402,-0.26639384002868016,0.16336001843463541,0.14894008621421348,-1.0549633544257742,-1.4822910873732393,-0.70370911099236222,1.9325626523769137,0.77014979116035409,-0.32597770539888488,-0.066849364176023829,-0.27825917159563901,0.62625260528955073,2.5454248280846596,-0.60530493211447434,0.85719121321357594,0.78183906144577242,1.2009252332670095,-1.7577086875985055,-1.1749182471009345,-1.19261452602642,0.8151045646598617,-0.032966019165089865,0.85847745085428762,0.40581207697160543,-1.1325291401411384,-0.79674370723462484,1.761669107517057,-1.1934515300460382,0.34018071375046777,-0.20634358402547631,-0.42369912624283218,-0.4703443098171794,1.2578116699985205,1.5318504059339448,0.25132183664391444,-0.099651364577567902,0.089152261596499194,0.61361548765655416,0.3135903188979049,-0.49795748976197418,0.098198204148971902,0.82545450453209535,-1.4532855744124764,-1.6466307302641401,0.61299552458264583,-0.24592927026819719,-0.75766448245911466,-0.79352749859767246,0.79147356890180887,-0.30597736828870409,-0.70001733017543133,0.89062244221389508,0.48448861481021865,-0.46384612124407953,1.1266123402349759,-0.79285203728466136,1.8225768988924094,0.16613555338006353,-0.41388011933605212,0.45059309825258514,-1.0613816234415325,-0.39643838797760123,0.11346085313523718,1.2517603997134672,-0.25047703137681088,0.80063562876627081,-0.65010612641098242,-0.19328752024227783,0.32941963465108698,-0.61582719167848354,-1.1872556648696668,0.60390450416914243,-0.7271468874635304,-1.5819405199725809,-0.71864836420946776,0.53964882780492163,-0.99224016328890852,1.4808510738250404,0.38254705550080781,0.23923336497082565,0.25896454842432848,-0.0104466337973024,1.2336501146820331,-2.0391587962998363,-1.0269450951481278,1.2663675922222599,-0.42323407816116171,-0.96699402347818142,-0.30728025031294415,0.71470685572224302,-0.67805308377807461,1.5324141365542923,0.7641432654365683,0.79530249251600948,0.3296614293979751,0.68407152366338864,0.97708013086710188,-0.080176614719325315,0.87311801491318575,0.41270884603457042,-0.7162600863643207,0.24369765004683111,0.21579837973844318,-0.026537765581152346,0.25022997043919221,-0.11950365952755251,0.42963213853479798,0.7302490042696862,-0.32594036375836716,0.79617779341285011,1.7993116133209428,-1.614992533416618,1.111456809243903,-0.7006444205111324,-0.67387534659448045,-0.48391496857818034,-0.35629246522823249,-0.22511070375429351,-1.3047736089334929,-0.038575370924645462,-0.58808399640232345,0.3810609404664792,-0.76432202844193442,0.44452292672679528,0.83144272712073619,-0.17716046248796086,0.2534972618342225,0.63992646148438692,0.88282397535996582,1.0007616616022441,0.96424790538438432,-1.2121374676118186,-2.1433033563045223,0.69570322600955581,0.63254073076927875,-1.1563444193085877,-0.44004551978432827,0.60802581205258832,0.45339466227113823,1.0574936823480203,-1.0304239052805644,-0.17722932142288048,-0.94482933076517395,1.4976495666446634,0.75516838444054357,-1.706510466445105,0.084807610758244015,-0.29306396661264777,-0.25888198423863984,2.2640217918871879,-0.4925836731138582,0.11270075612021309,0.1951316521145407,-1.1663952294797226,-0.56953543079305102,-0.14801584088370778,-1.178505545821978,-2.0017555446153183,0.10930763496300072,-0.068106808397226271,1.0040944630025159,-0.69524418752004535,0.32706300010004885,0.27691381516217889,0.073576104080804186,-1.3596226478765867,0.39367829518502107,-0.36755548703720103,-0.44941752435104565,-0.54528682431696995,0.073259781647662017,0.54835907373164872,-0.51703421616355327,-2.988243067308769,0.086008597413640642,0.67947055494074882,0.10942937618065664,0.58938845868036216,-0.088496062566353798,1.2299190245752187,1.0442442631767113,0.58522480158212997,-0.84782549024092779,1.0763702977279823,-0.08814662789477247,1.6754474691561014,0.024621616093451235,-1.010825859434088,-0.67132071850032005,1.4417104300502812,-0.67079923772328098,0.521773713137058,2.0363918595904469,-1.9286824027985299,-0.43353023211737141,-1.3842439585897286,0.16039853803024928,1.6211659697981702,0.88013653934868696,-0.46029866243509637,-1.5461146727252471,1.6255085517978141,1.0208375359248665,-0.59140555531046612,-0.091769913888774993,-2.1370647867145758,0.53739250027613117,-1.2785073090180228,0.16676279074250411,1.4721084005657525,-0.7908532792550087,-1.3867711851571478,-0.18606338860463023,1.1173593614005994,-1.4680579231717568,0.084995304065428753,-0.39733405279339962,-1.7181275105600797,-0.27265745722398282,-0.91596301681772641,0.3259981891351893,0.28164308093573198,-0.5825431152232915,1.1302806412451003,1.1053994702219792,-1.29511093683638,-0.93056560099955887,-1.2212122698112873,-0.095076797814527825,-1.1128134829191971,-0.053963402207343442,-1.2110769284538225,0.27863297481795524,0.55120048946081357,0.74241572010800549,0.76002029901123069,-0.43486676723403822,-0.28853041427626924,0.76514526602724398,1.2203693654336285,-1.34918238490719,0.86285678394835696,0.93728077772363416,-0.15000740925915823,-1.6421592488114576,-0.35786672122140673,0.64007126380807233,0.434470759546847,0.92736742568631148,0.67120548428597604,-1.6527279768913097,-2.3594491942808959,-1.7415970106124585,0.99521943431379012,0.4126135598339295,-1.2407571179142642,1.1199589019123333,0.61383564152312275,1.0157038669035445,1.0838494374338921,-0.52973499652042244,0.39618714602864952,1.2598723525619782,-0.065897942444587104,-0.52643298221159796,0.79710716431142092,0.0028841753530302458,0.66071760440395977,0.81506631197685786,-1.297248752488853,-1.0846915950175318,0.26896323595242677,1.3917916516842339,-0.2883207324068881,-0.53977795121231698,0.821413164452519,-0.92288265993877827,0.55455832734958488,-0.39066618177694878,0.00030122282522927659,0.53282573429120839,0.84510343654109998,-0.41916844796907837,-1.1509762960192427,-1.2717179617195538,0.28074028100246673,-0.63921379829192471,-1.6000183321273709,-0.69933735711165279,0.60229525028838493,0.096245646571372551,2.0323757016071755,0.58267517573092131,-0.49969014042237037,-0.2490919413172141,-0.015553936912560089,0.62417733086617344,-1.211938056369734,2.3714832027598307,0.68681728471690129,0.32228390316388411,0.39098114209039575,0.99996300991488585,2.001779469857746,0.44901462953759985,-0.01510354360259137,-0.94646944199949823,0.094318093311987233,0.96648630769927735,-1.151721277107757,2.0642239080890117,1.323094158054456,0.31934251878300607,2.021537698922367,-0.97498704868070085,0.17528558148563847,-0.72995687714469082,-1.2470934265326836,-0.5902518332860478,2.7119368727524371,0.038806991932654973,-0.46675013862655368,-0.79520266780231874,0.74030360304707921,0.36762270541374775,-0.27019490223853515,0.62881969553146444,-0.7986360873309154,-1.3080362181726699,0.16937508297587131,-0.94440919112242272,-0.74688816978161965,0.11556172882567395,1.0940197026848988,-0.1226907180846811,0.17166162342397742,-0.74050940960628464,-0.010113698500186138,-0.67908793772522313,0.1282034789533586,-0.12458055690020248,-0.25050220391598671,-1.1140300496707793,-0.089045539323270848,1.1273438422068816,0.042879564019289884,-0.21416928450077477,-0.22440981888292244,0.16303803924934199,-0.53100079620088758,0.84147780898123381,2.1351360753313791,-0.73266098415874215,0.10477913060062076,0.7827546342656293,-2.2629365498212217,0.4818209276873282,-0.47071564727752835,-1.146354860150625,-1.3196601277823883,0.32603523513009114,-0.30417187439481713,1.5552264577942851,-0.97387356034250072,1.8694555110483402,0.69407167880869924,-0.88008341271836421,0.87099897289683459,-0.3193996942444306,-0.00087414509733104492,0.95684254642838551,0.37601499195360744,1.3613742942235039,-0.012933617467740306,-1.996408140155683,0.97473581397657005,-0.25134118584720544,-0.77443120105370955,0.86590386374282824,0.35887536879456094,0.36769610800075564,-0.84824464990920012,-0.5427197233951685,-0.6265297741610828,1.2662896237954022,-0.49028054423210626,-0.43218397135325826,0.23985049869027519,1.1574702086918103,-0.43301703197037356,-0.43896628385366498,-0.58999263301051186,-1.2219208816435072,-0.29453607013430239,-1.1135346556408707,0.34417751091278143,0.85739456712361684,-0.39475559245743025,0.020424415798626257,1.1613849782107557,-0.47114146853793898,-0.081471633513902908,1.4888950529203413,1.0463883305571691,1.4185712278579177,1.0879424148403112,1.611527890404427,0.051865439629488259,1.2654101109152311,-1.3643989635253262,0.25562525196858943,-0.16092470418685348,0.38551185558686385,1.2255797650588101,0.71620440041876243,1.5949742999096022,-0.13543575204873218,-1.6633861244723194,-1.3704752296499079,-0.10548314239945571,2.1717789299274468,-1.2236575494072011,-0.42769728145209651,-0.40333924432758828,1.9082822705364335,0.19460093413732032,0.33735338315366231,-1.7654956649455591,-1.8696690990983742,-0.40411803907251614,0.97310701366398789,-1.337642455976741,-0.37894481112855671,0.44126048646007932,-0.69695657372453079,-0.88295704900316252,1.5177196487462905,-2.3186414805806046,1.2918270573035529,1.0690069641232087,1.6141542120317254,0.24622737286342153,-0.14853409089244585,-0.85537584191107807,-0.53006776702499514,-0.81036872961205619,1.5481943422100066,-0.91040263877760252,0.5616433964687535,-0.28805172834255177,0.47153661549786613,-0.62865893544219087,-0.27216736813954662,1.7539208576979128,-1.2739115536176788,-0.27923887657772484,-0.77809608770075767,0.03339768577258477,1.155049039575099,-1.5153609150225913,3.1191539817025165,1.1679988990113688,-0.35322373501060161,0.090568163208093869,0.98180749665397826,1.4931048849699855,-0.51066583009217492,-0.71651541295799592,-1.2182949207755391,3.028014034790055,2.040542724224125,-0.0260751439701833,0.37522600346499008,-0.089212031357981961,0.064376450144207079,0.22191472335036716,1.175477321579002,-0.45599111566559203,-0.16899091577810596,-0.24242874046833804,0.63101856268290424,0.47074559769107227,-1.4037685873441179,0.81517024694164297,1.1080452934843847,-1.485052223500968,0.37923851645480694,-0.89171656972911784,0.54019104725931433,-2.5327672628620457,-0.53760169957319892,0.36377001196927489,0.71652898352681482,-0.70940476805676345,0.27100165190424935,-0.41599636309405202,0.015387948510936658,0.54061438288669394,2.6704000764454432,-1.5605925046245737,-1.0001512816176825,1.1406948842893898,-0.051078983677646891,0.10152485243839307,0.86734032452093723,0.091708592699093761,-0.41694980951079302,0.81350799702532961,-0.91311726508314917,-0.91921151661710543,-0.52232898360443059,0.25720342386447392,-0.44989542609487992,0.2506650653769138,-0.11601528400175674,-0.085846446800452572,1.0389207985900568,-0.41754424398396839,0.38303819392586858,1.2915279501557888,-0.96630217867371437,0.48782631509364965,-0.76094129811122846,0.49880815204841344,0.21008075459943884,0.50334205861093728,1.308680002277401,1.0244377099750477,0.3103246336284548,-0.6860954091082675,-0.58864825915266172,0.29442045184379145,0.85839259669632428,-1.9586716599337777,0.29342309388232118,0.7473187133888074,-1.5972028365956994,0.80520893041613939,-0.098614666767586456,0.89674588677868505,0.94646268224630137,-1.4961267439536956,0.77777402108171201,0.39642343393836982,-0.92649272046540665,0.92238767014789702,0.39950587581505725,0.65391502773694821,0.12116835177161961,0.36365818391465438,-0.33955484019280729,0.47389657090706644,1.4621793002035062,1.7127862729459156,-0.43184497612492762,0.27644899280413904,-0.83552380572192642,-0.20305862270887018,-0.056588081527720595,1.3721342699123082,-0.46933449601500604,0.16199219306784104,0.070086858577475777,1.2171947760326907,-0.61098005414794809,-0.18491329511747459,-0.42474974564911039,0.10688754781490852,0.0036149291720047115,1.0854179380699363,-0.51837980452316279,-1.4467761721993773,-1.4014742831055966,0.24677757130882844,1.0237106901648381,0.53213435556816868,-1.2806510275877847,-1.6327031100629301,-0.890942838129679,0.74805722050362244,-0.038689188299237211,0.91561670995940292,-0.24368563717295325,1.6140576369045796,-0.36091814303693437,-0.77840403804923353,0.483089133421503,-1.3989449316932558,0.10396510331332379,0.19625149303627804,0.71302560343818144,0.090808863077915095,-1.137943717423382,-1.3748036943795388,1.8038817446345747,0.59657973424338406,0.1745534923926958,1.7030608450704741,-0.83490003520415601,-0.86170519468293938,-2.5036348234246137,0.29378012742015713,-0.70289306174478938,0.17312070877440608,-0.20678752363903835,-0.83533064387884115,0.38060516873079803,0.25379970446206318,1.0328104108127809,0.315043118707728,-0.73726673225495598,-1.0852577994743717,0.30912395469348408,0.12647502711122252,-0.21054527260681508,-1.4185393217629592,0.9906119736418354,0.090773236008891395,0.34633162990787736,-0.45912248569903524,1.1778381350133253,-0.47312617389713196,-0.57462538004721953,-0.022421079606356458,-1.0089995880855831,0.092358811280330175,0.49655596977872524,0.8716068550211663,0.48453954495573159,-0.021374918881540798,-1.6074213213904944,0.82677435594454873,0.35296636481999127,-0.45033806173333885,2.0316731105839447,1.0399981683760386,0.89728887090485265,1.1703126086798283,0.55245152665803587,1.022557955055136,-0.40436373896335115,-0.99231490758138208,-2.8199331469875348,-1.2170068001937628,-0.79945003424944794,0.47839115747786465,0.55730320842077152,-0.93554069121944583,0.44539025647023556,-1.981987694185005,0.12058085545644802,-0.34888304760352834,-0.86144646392863333,1.4605334697973926,1.1233085565450047,-0.06947865046736261,0.57153787174662041,-1.0276676066417543,0.33062982069570362,-0.39779504787022113,-0.1889079518738003,0.36725429675205623,-0.010649346877946161,-1.4660171218486027,-1.2356777786471147,0.37355358606328321,-0.39901795395309592,0.24576203241698177,-0.63578047875428567,0.25714897817167115,-1.5282921207637823,1.1162986499697023,-0.0048717190284924871,2.301613961853632,-0.54267833857510739,0.18283143945912564,0.046651141926485451,-0.86642990678546306,-0.31620267855672035,-0.047945266625766411,-0.36032205880954932,1.5548351884844449,-0.80725728435216548,0.68830626024630703,0.85711008618051554,-1.0550509723580881,0.21995246524141562,1.3679116161741312,1.0197758109393906,-1.4895504673784419,0.07699862005920613,0.57228322074083027,-0.73709151435800135,-0.58300107200274409,0.19599763031203091,0.36818173031554791,1.158292583024457,-1.7864611412242648,0.035344040261394476,0.41141353492518601,-0.67153513236235818,0.90883870410173739,0.064926881790672353,0.17851962465217375,-1.3158557372797572,0.95560571835386188,0.72447281703241029,-0.89652918109008295,0.78973907325370352,0.80945359601122546,0.31508345169711827,1.984823020247682,-1.1662339350761139,0.1156225343994072,1.104642147708681,-0.34589971192653668,-1.1254718917356674,-0.63356387975085537,-0.41927907731689618,0.24011675644815028,0.79615132673061106,-0.47717617532578516,0.70482812468122269,-0.84782098688411323,-0.8214133991467405,-1.2235390057653401,2.0291970422629482,-1.4304673602770168,1.1926697713082122,-0.25270293360569279,-1.8720792975487908,1.2782466314305621,-1.039124883613437,-1.5689987911768102,1.4893426393549893,-1.0328679880020513,-0.69893799863834616,2.4007501025104521,-0.84320692846730894,0.10342148838589257,-0.10702753069628557,1.1816603991224961,2.3827527183656199,0.80400117329375609,0.34306222513036178,-0.54431737263022928,0.36171296670577735,0.69110179342950695,-0.34872232550925514,0.15691659270025024,-0.21557707533760376,1.0691275972565197,1.1538097243034604,1.0479111437351394,-0.40443201935366729,0.051933713257064217,0.62428868339029864,-2.1988625503149564,1.0162313451793077,1.7265217372369539,0.54591637641695645,0.50197096751373205,-0.30400294048640442,1.2824983866162452,-0.8745415226020945,0.73346589383741634,1.3595000131171715,-0.34787511860300907,-0.2652602099162038,0.041026142695010842,0.14599407583737592,-0.4793076159033765,1.4775174239320967,0.25787844918957081,-0.39758029490438834,1.2503151891047837,1.4428323671838972,1.2521171605812942,0.93342329698721238,0.62914462117513203,-0.67020531057847821,-0.40225968329316009,-1.1520872380230041,-1.1309732152812952,-1.4891619624898931,-0.59115329349563872,0.80281378135883419,-1.0219001977145519,-0.35759832405298508,0.13250373909728153,-0.3383301356921809,-1.5523098638399038,0.79090758872367872,-0.38048794776211486,-0.39811920733058487,-0.4999508400525034,-0.37668859678121447,-0.47330431600987194,-0.34115271616855875,-1.0567455618586536,-0.79082172263789463,1.7352884874670482,0.1146586089186233,0.35641865212771634,-1.0906287588443397,0.16643662094135819,-1.1913808530130379,1.1493952085743384,-1.0555262580961282,0.11648564784482404,-1.4897621345832992,0.30055147477502725,-0.56469974622676522,-1.1743071919990149,0.037304189168488378,-0.41399507590314205,0.75975095415452398,-0.13659110221250023,0.18816740205640015,-2.6268000735166819,0.38051218586885488,-1.4012146130474141,-0.41396688690286654,-0.24444969674896935,-0.4380668801258904,-1.5343526138787609,1.4402187129107731,-0.16524297407876587,-0.90241984558116017,0.55010607629858388,0.43930443311310219,-1.2885175677804301,2.4084922064610992,1.4761450518687946,0.68589513317392137,-0.41505774958289798,0.4652465690139902,0.84026271529111951,0.60691848532804327,1.9843603130073197,-0.98549354222421814,0.43744399428864111,1.3296166310770208,0.82207659872760452,-0.45669208190217714,-1.9518823802641301,-0.41675380190189332,-0.47493149269420593,0.9391729124794399,2.8872624953224277,-0.71032533554934629,-0.29201950061010179,-0.74784134536106062,-1.0209719023895971,0.048442519993820356,-0.75230651487693356,-1.0077584768671688,-1.4444404981903491,0.51617254013040947,0.46846247872671465,-0.34455551384098798,-0.25160381400303161,-0.91299986426491353,-0.41420630854195251,0.45314825470505854,-1.0559968085625622,1.1854938140439895,-1.396717754404784,-0.78252923486899895,-0.65926490780075919,-0.49973069818680282,-0.47623174180492778,-0.71081841088385012,0.72903845791362665,-1.6083141587464944,0.29224692247361123,-0.61546652366494881,1.3536850230293602,0.50363241262339165,1.0272407598447677,-1.3252666858071716,-0.29107462552729996,-0.14921503670256728,-0.8421829886699046,1.064063896756428,-0.37163882411584337,0.15330375186659193,0.77282332986970992,0.65435020601865856,0.43638528741154464,-0.66218271668017048,2.6696782266514405,0.064965451698128077,0.88781085359724088,0.37394017183632522,-1.4504936592112072,0.51217319346031598,-0.1777825828218263,0.074105101475448298,0.73592000784087774,1.3771630660349432,-0.81911409280661396,0.77241684555328316,-0.02929498870974593,0.63408366899345137,-0.10120437659803826,-1.2453440005864125,-1.7507818656127545,-2.3208506850178563,0.17408526046226336,-0.73462652007250606,0.31761381023022894,1.9070998082039519,1.088739723324335,0.97803996634325907,-0.21941138268957303,0.67086289630804941,0.54403428734138393,-1.9792583970017703,0.42407327586751636,-0.78981495925195078,0.32389496992368866,-0.67112888679714533,0.10899882448863428,-0.072615680194780055,0.11607958459869064,-1.7701599016303078,1.0702427869465825,2.7611519282632151,-0.25238632225854896,-0.3971794756098162,-0.68513753828430157,-0.56109850353665569,-0.65118134514087966,-1.053824752068413,-0.14247839601800438,1.2491550942767637,0.68235772971325992,0.5507066676989838,-1.6995919255708722,-0.90403098497878365,-1.6501949867898627,0.92882368218809763,0.5706593429218948,0.75523177743880709,0.8172759016739306,1.9468814205087983,0.52545742689680142,-0.98664936698466366,-0.66669633931710937,0.68304719947168002,-2.4234906029896948,-2.2169379769339397,-1.0601397639454662,-0.97167400348391908,-0.46052559751242966,0.44335183673478185,0.46878389702540518,-0.46757976012895053,-0.45740822855805852,-1.4022097888677749,1.10453296207249,1.0665683745757923,-1.0857077308471346,-0.34082915895589588,-0.79833641505510844,0.089747294349984824,-0.69902922319998306,-0.71792538455484323,-0.53870323815124466,-1.6516201868850873,0.34025240939744522,0.62629299086006607,-1.6290959113514201,-0.33503900733496894,-0.29880246260336263,-1.1861440269655394,0.12219003516971705,-0.021538350087280254,0.029642937446236108,-1.9911817982935378,0.88422819450719625,0.12732921891770607,0.91890496917315845,-2.0422883974473263,-1.0214469535336175,1.1047766493956079,-0.60113802370199099,-0.29007998332554552,-0.57137700666750191,0.78430402051802905,0.60071810333134157,0.20854394555763739,0.52469358754631812,2.7452894689001139,-0.55493450594050941,1.3068879958241852,2.1572353676782372,0.51099888705652319,1.1678235785896929,-2.0257704537888008,-0.6699545437232366,-0.22976696586196221,0.44014162583049443,1.8107028346235474,-0.44612357156186971,0.040358584480906644,-0.6371247766078455,-0.75484047011618161,0.35111943300719395,0.61797678225980834,-0.49847614598027518,-0.35334255877335663,0.64014790216624129,1.443345945990167,0.87093646528840118,0.37374416004416261,2.7677160965571552,1.1228116412529432,0.4213167456510562,0.7835817308146289,0.96404688184391607,0.8306474551918972,1.2122749147268232,-1.7843581335715644,-0.76172637791462505,0.81324902801688237,0.50704772771920414,1.2354375743610344,-1.1131272005913049,0.66608902436336015,1.3713686056166132,0.3575169131312243,1.2641737976402656,-0.16474174992359225,0.82108631279558664,-0.69599422987284654,-0.55566393232956779,0.35796755998205604,0.18772447166372072,-0.20860243936341796,0.4460495564968443,0.46275033468570859,0.65488170722801731,-2.0137158445543495,0.7066774856603969,-1.064933350455292,-0.63578472313947199,0.59576012922639909,0.97953852859433987,-0.41295099106487554,-0.16286988647443856,-0.6044662741644975,-0.70767563737241423,0.89251939728692919,0.359734288309221,1.1697625779187719,0.93298392705705058,0.52775832547746637,-0.1344811515341906,-0.32016989152295977,-0.53066065945341656,0.099648987874322581,0.37539992261256311,1.4816970672888714,-1.2018487968793419,1.7074492344812915,2.3588410377889275,1.3626482255281489,1.3938243155254673,-1.945352944305311,-0.33910867804312766,1.3670391813553628,1.5774822942767259,-0.18795049196798946,0.90605700202149875,0.93499240801693184,-0.73601130328204778,0.34551404122794621,-0.51091573961777459,-0.639744025563312,-0.046604710115453238,1.0013713121569885,-0.81350994229270979,-0.57973480634145602,-0.66865600782484358,0.8413374048168587,-1.2002637879599884,-0.28895010898116852,-1.8428299275835884,-1.3238862862262437,-1.1247983269246102,-1.06085146912654,-1.053150352701069,-0.80737425356761494,-1.001082851744179,-0.72153972052237147,1.5444143986757422,-0.81336572457071821,0.71227315744650543,1.7332388850166447,1.5055658401141812,-0.84948758545263003,0.27803061572879728,-0.44060767068579543,-0.36741290277603977,-1.3431520745780323,-0.75831377023202451,1.9744650625516473,-0.61056926444587212,0.46812497629910416,-0.8643082645864103,-1.7600772222861498,-1.192034765955085,0.51672533522577069,0.51051935842771845,-0.12718537416837644,0.4033570772905104,-1.3907180831899471,-1.1712028317394816,0.37446915078442133,-0.13244268330263273,-0.82043041917513604,1.7275361903033581,1.0349331991126569,0.9382044013358386,-0.62752469780865139,0.36791083327502261,0.93884878573116637,-1.1531032315986542,0.58170679033030648,-1.0762811235897478,1.1848164458442725,0.94347901749958674,-0.23533784149462697,-0.6351606479944345,1.4007559290838527,-1.075929766708478,0.75365634129890358,1.2387303748950651,0.28453051645596988,-0.99612135516126199,-1.7812392496951324,1.3565355630541676,-0.85486684162713955,0.71148375337562797,0.25652815788047623,0.61197386778568008,1.8585859630277084,0.30435250331392677,-1.0132327542418802,0.12034260882813817,-0.45366728986165472,0.023550630715684737,-1.8281118409646044,-0.85586042564687248,-0.61472873281364349,0.43660011223531137,-0.061217997903996804,0.27041658262301116,1.1756038748961684,-0.18867193527843454,1.0035817086090442,-0.55121822729035741,-1.7204276053210088,-0.72737446793796356,0.32363364514348936,-1.7514374982968337,2.0346042022651258,0.23852763769975199,-0.33724308516448476,-0.018854140742116818,1.3328071299579065,1.9836727071208329,-1.3898988220384869,-0.85916276095748423,-0.10239998806043797,-0.12223983363369401,0.28045767361600438,0.75933535124501195,-1.1131327035006808,0.70437412629098495,-1.3548334137870166,2.01940727366433,0.017382989172640521,1.6238858406610899,2.1262065814330842,0.30170553783901399,-0.0066588179908066442,0.30616848158228666,0.37096137520342048,1.6603549813754204,0.34913085019381962,-1.7474190968738486,1.0165410555721386,-0.35712593742276905,-0.13347762125129473,0.050723098831097088,-0.065474260833815023,1.4636040532751546,-0.78063102311102894,0.30255063155286444,-1.0415835490181151,0.70092988538624668,1.4426988848747879,-0.16313787425033718,1.1270629968192591,-0.70475426992677781,0.29456930821193666,1.0545124431993074,-1.4450023716870792,0.90945261558218915,-1.3826358348717473,-0.19530027701044389,-0.57195368013960801,-0.93822663427088548,-1.0169499722725197,-3.9826807547104721,-0.28971292736200271,-0.11897762044502838,-1.1377274420844132,0.32175923283833296,0.09463542661785565,-0.77066089507158364,0.97116821576706169,-0.81617399798226431,-0.68902402544390029,0.01741098833984888,0.018267011290620427,-1.587514363921229,0.72342929857539462,-1.0173798767913673,-1.3711329885450074,0.39212673422108957,2.3303483587936817,-1.2574315976979171,0.40739865811076725,0.19452687841670777,0.8038816703831082,0.27777242941586,1.0273600222142372,-2.0863474996630376,-0.060004289258859103,0.68228959062369976,-1.0900185347569451,0.57095674462074397,-0.092332818123837701,2.4865913719250323,0.97456146481864225,1.3144230379230875,-1.6877932973278869,0.16437642377027692,0.21557411433467868,0.93476190142760018,-0.68484259866826047,0.41340080540337598,2.3601254840017614,1.1018559273547843,-0.3835546616738626,-1.2327487953348242,0.35201695338234978,-0.71204206173326712,0.098816020092748202,1.2536857011289928,0.46903930254759385,-2.0921243678237622,0.38429409815223997,-0.34538183158720748,0.13258591780493512,-2.4026484948563938,-0.302673881427027,-0.22440722135189703,-1.0871393610875912,0.761757152189385,0.90747803442758279,1.8551512073849867,-0.71860443875749669,1.288455558171739,0.86180481122481456,-2.1109989842220824,0.54828707658152187,-0.34204035549555839,-0.98952995451343961,0.87029437269315812,-1.3893247558955808,-1.3396715523720204,0.95313768680438182,-1.3496600319048409,0.51107274325357588,-0.42116811492634182,0.26577878086376705,1.2411905375068426,-0.88923067438224435,0.92338430874662525,-0.78759034547685369,0.77764430143244512,1.9696319023457203,-1.002919422230653,0.54193662533009801,-0.026542381107125243,-1.7169097830872104,-0.88552237429458047,-0.96708073360874303,-1.3586989605757205,0.037405925149112923,-0.51662045614922047,0.40236507418086886,-0.79882319115926737,0.83470968184504479,-1.554204455641889,-0.30545336747598012,0.51182594762606493,-0.61519885364675075,-0.74290781049389731,-0.040944791316161674,0.21095007659922882,-0.048682224695803224,0.97470148909251741,0.5481353314494769,-0.47536500356750711,-2.1713016541377996,0.073386678048295143,-0.57446282623279865,-0.14185581228400268,-0.51419716755504852,-1.7671348846394042,-0.90792573885921357,0.64453974725376639,-0.56953982213880927,1.0079015058169258,-0.5269613547070644,-0.18264098061953118,-0.84910293373790013,0.83466439015335769,-0.49713123706388268,-1.850015850886378,-1.2758850028646704,2.655991433720394,-0.6989145016132482,-1.2946034098967436,-1.125206902049779,0.33179283396103365,0.53223563718684797,1.623294813478491,-0.2835896007824637,1.3316930204845145,0.40087624350837919,-0.51929926892326461,0.09350130053277228,0.57680991947009974,2.2508448433037538,0.97176401391090073,-0.68476334757322321,-1.5712824633466,-0.27214144429520082,1.3194247070751355,0.55085096830308022,-1.0151003166547017,0.63230632980205359,1.4821211882535652,-0.26569013460006302,0.37137375534076988,0.99362070402293245,0.1296130885341561,1.8562252451965817,-0.7803455075807858,-0.96086659441270916,0.25741872998075449,-0.84854127426316028,-0.60995335028121123,-0.071630428319841094,0.078623956101029541,0.41538510952338414,0.92988107291245947,-0.20091646291795914,-0.061091565787676931,0.43880533352210416,-2.159054934309165,-0.20609092017830499,-0.55585274551438268,0.382661223464067,0.10902363677162187,1.3255940057573619,-0.13744824259111768,-0.95706982195883594,-1.7269956339479253,-0.22588984610862128,0.53510511690635154,1.296136563885689,1.4062052470271276,0.12497849967479222,-1.2049605307115274,-1.2547312726023789,0.52701450388033855,-1.229569380047046,-0.13870828017973547,-0.59048374334398579,-1.1847903402604245,-0.61137180369561062,0.97162118745196679,-0.87126481818820134,-0.27933141484919399,-1.166114805147175,0.66665272517460283,-1.5203180064680382,1.7860500481651926,1.5258685253424755,-1.317462299219144,1.1439413518651129,0.61569841668403202,-0.44480268066128353,0.6573259002850298,0.44725500965751758,-0.24798276216271137,-0.14890236595700471,0.94851912597192878,0.1241680346539188,0.16819005578948204,-2.1356316623296521,-1.3152901142537874,0.15675114491569736,0.11874892427343703,-2.3869199882169867,0.17818961957991383,0.37000451888948432,0.42680598892012961,-1.1157304261410843,0.9892381393225903,-0.43464194659798228,2.2993960047040933,-2.2843619696970907,-1.327549901461907,0.60366852846429819,-0.063402060157062887,-0.20098697724134945,-0.4925680525320047,1.4059522858128266,0.73847513831869016,0.36110875999382003,-1.0399339739080291,2.600920753665807,-0.94153216095504122,0.71607103093936209,0.48809029420892375,-0.28554368159391286,0.66249735791950404,-0.80053096756086073,-0.79470829817339039,0.30043757298337903,0.13551766771079432,1.5124071118105045,0.31810855963105111,-1.6246749134136929,0.022834456464239188,0.77980206873916413,1.7546121877706189,2.325784021716224,-1.0653418915892992,0.35204765360048801,0.3542518938872582,-1.6003633214249471,0.93712370392817901,-0.88607659754379042,0.97758491483716348,0.79849250468927491,-0.55424822061700352,0.232484979130304,0.14350386852728561,-0.054017397085396386,0.26770092081771829,0.34719150237266638,-0.0029616883389863612,-0.96388313837244577,1.6724675364513741,0.48115336550844767,0.92989393336270898,0.34824076556552386,0.42112156816895618,0.62655645676350946,-0.69942247999232166,-1.488196793607041,-0.08018921457836313,-0.24179098165443777,1.8423406125218833,-0.2727497556114466,-0.71363015871200963,0.8887056271446675,-1.5165961294726549,0.17986315863481339,0.36942489935813155,-0.5211077419211394,-0.2771462129485836,-1.7830627917452544,-0.59916130409546675,0.66114932180206931,-0.30279342964523742,0.88985470014317825,0.1836610518998637,-1.7666479787692999,1.3127888619441739,0.03847737683449743,0.15115114369756716,-0.45537953394257447,-0.83820526205183177,-0.73228589580273784,0.16135731106701459,-0.34993249915409064,-0.18087902884329005,-1.9791424371576798,0.34215193234559677,-0.14482227679131762,1.7207126467279041,-0.050249532284612208,-0.93503601354704746,-0.97755245674511115,-0.67187927902602473,-1.6795990699037617,0.65671293670912623,0.053324812512977993,-0.71551821768984736,-0.59076568619187619,-0.35636887659648647,0.92373679850802737,0.23584218918202077,1.2027398504855262,1.765985036891514,-0.63242297700574712,-0.38123754983553498,1.6267294421278538,-2.2579798225309449,1.2227927222877888,-0.51102678200273122,-0.3183923308318537,-0.33216806303862545,0.64545822522621366,1.2199196841324891,1.1805538133713847,-1.1170293844762025,-0.39716856572099368,0.15917659217673366,1.2115415290012277,0.41016108196791595,0.58636530694820499,1.1261001272472233,0.062489132713717706,1.2022694850574949,0.28610411834894356,-1.6409975165764796,0.41495134738558509,0.56902256466521617,0.29601720920323349,-0.18402785864911347,-1.3536934437045789,-0.14791031198671445,-0.18232308010770379,-0.99351254564341218,1.0369699368500811,0.31821845334065718,-0.29211509734800267,1.46286579960867,-1.6643141267694797,1.6479108302628342,-0.32471465537726191,0.30147909770422593,-0.34020199355052749,0.018560847502817265,-0.061786404136680531,0.75443915129668659,0.66017916795866061,0.65873298548844583,0.87323301439763212,2.0470523972394918,-0.16695435876798737,0.96662335786179232,0.32224764109472781,0.81734259236833073,-1.2131759202989019,-0.45992730224881706,-0.24053342700317382,0.35314165841689943,-0.61145591932347743,-0.57691715104611307,-1.7682634489705682,-0.027420127296739101,1.0876645217997118,0.28355598182325492,-0.21700019165119774,1.6725635531433372,0.64837991385437932,0.3259948122273908,-0.52271500777173252,0.29836473648864154,1.4747475061953919,-0.630574793517518,1.4918215996857838,0.62499404208840548,0.62616608054313694,1.3301571599882265,-0.4469316501662654,2.2094265480330448,-1.9319110498769743,0.90325529515211911,-1.6247079597102891,0.37619758429211159,-0.41134544307354004,-0.49053214024126152,-0.13100362344869571,-0.22461740260795984,-1.374478365817549,-0.62579959960677145,0.0086305600201100029,2.601947804786104,-0.0047051086657628298,-1.6660701942558074,-1.1581645208940887,0.94719171050285511,0.68513472147337373,-0.15111548705592437,-0.81885514683476079,-0.77085422546691107,0.76091058992065697,-0.99745597146652121,1.2728808804190783,-1.7270240211640104,-0.56046988915579665,0.069262706752974038,1.4550755832105196,1.0376178367481219,-0.5805854879682264,1.6923733894705701,0.31729632459810514,1.2397805857372237,0.8110246274015247,0.029369780926743173,1.3121172919598698,-2.682527802214397,0.73222931925847023,-2.5902689204517841,-2.696725663611288,1.3590655375497778,-0.29241931412679928,-0.24314909499590212,0.57755290631015477,-0.82005765971663191,2.2890436981197397,-0.54681816596621324,-1.8775098202787344,0.42091048705198919,-0.095085190352254559,-0.05478807949243935,0.031958576407136452,1.2207039927675256,0.21378773180371172,-0.3255721801646202,0.96216537910352307,-0.11914572834090983,-1.2031789377251312,-0.89750151961165325,0.6128082739917049,0.72250423081038351,-0.16186497642576192,0.19829526288071708,0.4268215578200486,0.024732872408562073,-0.32936635463236424,-0.41720848080159684,1.0793852923431309,1.2096134827499034,0.15918512244942826,-0.27201221036244039,-0.6115866424496188,0.85292844945807056,-1.6546105885336273,0.34628022619315624,0.43700655333370247,-0.076335342391325153,0.64139466852832783,0.86178903852979927,1.2907005943162788,-0.61611229496915865,-0.57051315479512532,-0.61576487093276566,-0.11378637813485851,0.013796027317360517,1.205215262442731,0.81392634560510602,-0.51926322141975056,-0.34679016891427156,-1.1776474967193518,0.068667635881609568,2.2252599646382221,-0.28601138901935047,-0.21406184788526203,0.66897230662994045,-0.54268441006575507,-0.34910544188738812,0.65202890096140431,-0.27662994970551041,0.89392932095290756,0.79796492759390891,-0.97777686089967231,0.76236537030348683,1.736344862766277,1.2867608406844653,0.49573546945369762,-1.4853686822767886,0.3765009351849507,0.19389942310896569,-0.28829908732253356,-1.5048390123714184,-0.70737942713571689,-1.365854591008739,0.18485176199348533,0.30321866131571829,-0.2362242449765237,0.22424541633419731,0.58104378623945985,0.78968858009073384,0.5263688375384582,0.095966065817750218,0.24593445042560297,0.063812751347341712,-0.12987177847403414,-2.0409447573096799,-0.58835871909526771,0.7316647552402924,-0.6581098614785339,-0.0091788767465947434,0.27698717471293133,0.020634796686810088,1.0950436700696247,0.26460943822995564,0.28902121649991164,0.4541659676613849,-0.60314849842733043,-1.7251656488509721,-1.6864013265089977,0.0050524594150680464,0.83139285384444994,0.56045400540331947,0.45651185934554961,0.23930266041624401,1.2612614774262947,-2.4556447913162596,0.75461956251736573,-0.2463434518507609,1.2436634281795265,-0.064980972947814158,-1.223670272496395,0.36232952142595165,0.36368058544286541,-0.1559672276842739,1.263033934163311,-0.6094368459139804,0.42093096532537938,0.90397290682192977,-0.42302966278503279,0.50773077103897646,1.2274311572692609,-0.16855601783443283,0.94235206968931184,0.77716654789283757,-0.037849308106551557,-0.44416619427178156,-1.8228320460123864,1.025600760748921,-0.38038826149023613,0.48704619147171724,-0.78236871073101999,0.55679592816870138,1.2732141657436962,-1.4513225294067786,-0.88378653200456114,-0.75746941267011936,0.55396168745067798,-0.53090168198531973,-0.0013223937068492628,1.0070029097302435,0.52852848471963354,0.97581417274423532,0.93323143358293426,-0.34432205116799935,0.44381230306513114,-2.1343505148813513,-1.8276263524613447,-0.24636300444624615,-0.011828706916066521,1.4955163524134081,-0.2356216579131469,0.82003902294465547,-0.12098748413454587,0.29025535942608088,-1.256582517069097,-0.5897978080404247,0.66229439215185593,1.6044519401637749,0.21271617534857018,-0.44747283403587823,-0.44496503092346135,-2.6252863368647441,-2.6439080859978099,-0.75515246645668566,0.71722737159913497,0.84851589043179776,0.42111918668133785,-1.5680684420195372,-1.2224500344118783,0.016799525475962879,-0.083187449520463377,1.624525589372499,1.6499000886343644,-0.32372202732462552,-1.9286488799554911,0.15058109826505248,-1.1117747969853893,-0.20623879617445046,0.85483514522647219,-0.13708670311685076,0.28735020184541793,0.91394448095131386,-2.0444017954139126,1.9497348744811918,-1.4615868076017537,2.6969777039851794,-0.1460317269448512,-0.097145240841869346,-0.49355613292420086,-0.005189034504760809,0.78397629710584926,-1.379207376201468,0.88771820716119243,-1.7773755018307653,-0.20322928676762572,0.32263128896886895,-0.060834762748297147,1.1779122454953517,-0.24489579962589736,0.25110120299797289,0.3355568257865445,0.62521776944633323,0.32929733145155132,0.87866408297055498,-0.21400783440457613,0.12239593528021907,1.1503528193333334,0.089224439602504479,0.78677648422996183,0.38195581930132666,-1.8585980792100087,-0.33028564557529089,1.6791112124406748,-0.48932053488196953,0.30890987888585075,-1.28677797344273,1.6678091854985027,-0.33482501974874584,-0.47057312964940107,-0.32963290616734364,1.1400544042187064,0.58592684217062729,0.6121801135949978,-1.2545104206081239,-0.49224225258473142,0.64392960229546858,0.19812332009983433,1.7811298138476486,1.2701469688234093,0.17608786667237175,0.87053587827273105,-0.29981083068392478,-1.1971543580738295,2.0199376776690041,-0.25117156057357998,-0.29689577588117838,-0.88012279197234788,-0.65309008937378021,0.6292306531406785,-1.4513033197683791,0.60237398911423334,1.0716187534665544,-0.082933920481584156,0.64253589375677156,-1.3946818785848771,-0.68615624308229961,0.94205270071041602,0.49106006005528607,-0.10756064717952224,0.9785937857752528,-0.30686776083563011,0.0087538994057839228,0.49343436582591871,-0.17193780682081566,0.43810394998604207,0.53240269160867693,0.47658238415194337,-0.29322132281798297,0.32213291572839448,-0.24112150175752178,1.1790749769066862,-0.23789721877135148,0.34066238190892317,0.28698899938326655,-0.96156015326380173,-1.1073523901142792,-2.6065995458835434,-0.86671193182410222,-0.45258774605990554,1.2537487887801941,0.984186058251734,-0.042008783830698476,-0.92524168624361247,0.5210787159196878,-1.9131265487291003,-0.61831402365659405,-0.25214319974838456,-1.9433743109033246,-1.024999615953142,-1.0744857762225619,-0.78610974343538209,-1.4018881816136926,0.23399112076300135,1.2442299201189209,-0.55478421077413664,-0.75864201300972056,0.70139361996669636,0.61119366946093401,-0.85047223655614612,1.1911002579574166,0.40590101819688179,-0.52485465359184136,0.424933525799704,2.0208432245001866,1.0985809279163561,0.83264368459636362,1.3750470449080965,1.2594803720476417,-2.1612964265299333,1.4074504538110901,0.54701724336524205,-0.18032905821015172,-0.69074151360601399,1.3934349353314186,0.75357884874766001,-1.3608665716542898,-0.81148526093761342,-0.1017066679014674,-0.58848311933290354,-1.0261561813020323,-0.012783223193485798,0.80102163065021803,0.025443335288724379,2.2886624890409455,0.38081043200407266,-0.10083247653090145,-1.7246408410547396,-0.89591940612419763,-0.79333356384926901,-1.0647600760931943,1.9285747967623719,1.0238409963659969,2.0349806039715492,-1.5205761224879013,0.98334350908574009,-0.70119771270981035,2.1039594236472041,0.30611030033805431,0.38858404113594852,-0.19048321700701557,-0.77733663164598765,-0.20252765739646389,0.72942790714390204,-0.29394537373276802,-0.71439091067192539,-0.41441013495725942,-0.8579425669586952,-0.47763055926639869,-0.0092947541407558728,0.79315379040798395,0.41882768276404697,2.1431517440103387,-0.25575471166352104,2.778254683007817,-0.85781303881367865,1.2554331628474442,-0.22051690894336187,-0.90758723765991056,0.50519133054959275,-2.9600542303869344,0.14821353587985925,1.0672798079445012,1.841642028762206,-0.15397589963360642,-0.85698041140011538,0.6069039560483237
0.41618925762409503,0.21701039093569957,0.85681709543068207,-0.03086247600500187,-0.086811823246541228,-1.9629200616928866,0.49578953483265126,0.0020207525365498651,-1.6054006094704893,0.55415360668986158,-0.099767490471886863,2.1675717261930028,0.26197631256715204,-0.52374656759561966,-0.013156770309100464,0.24203773368013232,0.71548200828688402,1.6628553194778632,0.27273591972918015,-0.25328277325201204,0.68927063198135219,0.432337680540679,1.3671722401442117,-0.4493430560749595,-0.68525431801969605,1.0600662394375275,0.51780947602015004,0.088816613562444954,1.0904760647466312,1.6222146792920542,-0.26986542251124895,-0.031425006591673077,-1.048650555291968,0.7058166027245395,1.7455680415970134,-1.1411813466019021,2.7036730212061149,-0.25544019567579784,-1.9279442365901256,0.36641531719444437,-0.16837472669917322,-0.1208639153618733,-0.44946649568348207,-0.52268549172124001,-1.2790428605878323,1.1097358754145576,-1.2606113852235981,0.44818912583720244,-1.8038108816492933,0.7383679259884941,0.47059024578666253,0.56540749995625006,3.1089980199472369,-0.81347255688884423,-1.626150131088363,0.2286280350064574,-1.4883468943126559,1.350540404100564,2.1371181916385149,0.49601513649489892,-0.34728293610546196,-0.80122340557379668,-0.10152809329077292,0.43175720508279075,0.099538280367676438,-1.2442706277487585,-0.49047032926882683,-0.064890857154724604,1.0768060674449997,-0.7010311986680996,0.4416216745695446,1.1037186131436403,-0.67199399592906839,1.357596747178484,0.089782181218264603,-0.94210915754798519,0.47701395607601543,0.63248274374942992,-1.0793747061217989,0.11893915296580089,0.57599105290628438,0.35004707463846008,-0.70710948779245542,-0.29616032231837769,-0.046702849641506852,1.4374408727956376,-2.1512998668275833,0.84030546817618568,1.6329909601581079,0.059380355494044371,-0.24238654422186615,-0.93375545424764428,-0.38506311810511706,0.45851518624346566,2.174248248652848,-0.082732583922120115,-1.0555817983320104,-0.26713734574713799,-0.28333384583025012,1.2732711671027395,-0.73550957196235578,0.79497566361255134,-0.6290797381268034,1.0030632751362984,-0.66741694915149341,1.842321433587955,-0.49414071271534676,0.88363515045654606,-1.1411405941787149,0.42275874602786528,2.4056025489874227,0.8122143006449587,0.82891249762907337,0.58696251804181254,-0.68390383358097284,-1.0451551773856498,0.77114643447304432,1.2049059916562019,-0.25775421113204111,-0.19649207952080713,1.5033066204890431,-0.26843455239091729,-0.24988987538569005,-0.58755689244230447,1.0947425879228114,0.14257530613375607,-2.621558083558396,0.57809761884116495,-0.55193585286981794,-1.6443609392030232,1.169686053514462,-0.88772968624220816,-1.0273816064857395,-0.66842721991698739,-0.074187747596679635,0.99527172966955113,1.5107939564439663,-0.69016568346034624,-0.59474531253600094,-1.7764907133515411,-0.13285303080958766,-0.69250785709983143,0.1348722968069361,0.72544620799969883,0.91229845184660896,1.270887949951925,-1.178029693162929,-1.0254815172641605,0.41143224798174616,-1.253120931911706,0.28534049549071461,-0.2292881142718137,-2.1224326598010697,-1.1951612311722608,0.07852766762759314,-0.43356142136531911,1.2108771882566631,-0.39293062371261717,-0.61684349241126801,-0.98472088684951253,-0.94646092455860809,0.56806286715965171,-0.49757110680880928,-0.33941673135413186,0.31644551040902003,-0.88659394539662606,-1.6968405484719593,1.187993527185963,1.1178169044154649,-0.13137190468744403,-1.0279931762545453,-0.56781598931496979,0.3242935859801121,-0.12575799323354556,0.99430476189247341,1.9484288563895162,-1.0981408705334519,0.86774093024072374,-0.81901961654007438,-0.64944253868663426,0.26722403864697336,1.4282579037398042,-1.1993515110931325,-1.9490992911494895,-1.7723836478020596,-0.44968286777113475,1.2697528156984603,-0.83439523605936394,-0.061797994628730916,0.32784037323495419,0.21750969180468627,-0.1273463337794547,0.09534489923346133,0.16790458984340215,0.45893203068355998,-2.0772402807493533,-0.12151892925192015,-0.52421245085932877,-2.0766500383927364,-0.35892661549319116,1.2584640521156516,-0.10721228387474072,1.0009976904321567,1.3041090502391786,-1.5777357950922322,-0.32752969529055159,1.7633701668592496,0.18882259740948498,1.2798610549290406,-0.50658205532975553,-1.1960795959053361,-1.2689563356412878,0.64326206114210494,2.1300254230274729,0.50838202450841508,-0.7303231565514563,-1.1800293245127285,-0.36566734741895851,0.10789683008864835,-1.5209695784222141,1.2553901862636032,1.0058811998976913,1.192729094172829,1.8260610974461711,0.39221538390032329,1.0783900683965073,-2.2887303295510217,1.4419107584608348,-0.28291272955960256,-0.2867400121481537,-1.2014168456518137,1.0825448227603398,-0.67489322549326503,0.44928464751044811,-0.7488345372026709,-1.131109481271253,-0.9941283755807746,0.060780420928257216,0.91839961185469265,0.75689601713185684,-0.0067947991969708951,-0.65222747901004652,-2.1464779798304199,0.22665758371755904,0.70361421184463835,-0.37079954748105842,0.83092122329934937,-0.33666982326694295,0.057167042044673315,-1.1344612055905057,-0.84951607100911908,-0.14786562700310701,-0.26987533801923397,1.6718305938675539,1.7752837594834301,-0.56892133281940438,2.7279377175944717,-0.70256592433987852,-1.8239714454618448,-1.5765619285614905,-1.9146123142696285,-1.2351947801912693,1.6569697121585532,2.1172259078750573,-0.74274438809842713,-1.4209991755658304,0.2900070680225485,-0.45022971313019594,-0.9181841640327687,0.079962328959960235,0.26536862470232175,0.50166837769461758,1.1720719042594172,-0.032720579455559902,0.054183195721608686,0.55560241703691915,1.3211727956151464,-0.9305751127968358,0.52741892965446902,-0.79782966067068861,-1.4561321130972333,-0.18653494424080874,1.0314897814176922,-0.36338019116802284,0.64088111344731835,-1.3584551106636562,0.43949266534998443,0.4500414816320209,-1.0514632043836432,-1.3816513253919935,0.44941767155819268,-1.4869066566629774,-1.6289605023207139,-1.656875817280844,0.99384705684706875,1.0974814767952168,0.71364192669423698,-0.01970469739972118,0.4595220098378836,0.66945957861410188,-0.87037417943326201,-0.86167981283761885,0.83273930695744802,0.042762677607256626,0.95007312211925987,-1.1003565605395988,1.8598045782486452,-0.57144951035552993,-0.78499329623897141,0.48747671380881735,0.27895346344800526,0.57433369255664968,-1.344448965132125,-0.28328303372352598,-0.070609580963594654,0.73040917701695174,-0.54000121561102499,-0.12810434998341513,-1.4425529276769022,0.79899707760741334,1.0679666630257176,1.3377432505742208,-0.025943198287537127,0.8806128442116522,-1.3522565256473076,0.21173383057662409,1.6504518757969824,-0.15006876553674947,2.1125525317449885,-0.52526556265003943,-0.91281015911512975,-0.77869935406650781,-2.3527019151253681,-3.0051275914625766,-0.72719052703302844,1.0864157093934488,-1.2270715325424477,-2.0401049315688868,-0.22146203497814812,0.4696470458560037,-0.17152464490003205,-1.0812609060096476,0.20843201629937616,-0.69143163847035205,0.21086831076540632,-0.053049213607169382,1.1629682638075112,-0.89610765509342305,1.0406281687739944,0.62413378986106394,0.31962031654595935,0.70811709077870977,-0.55068490257334124,1.8888267377923533,0.022016549269203264,0.52062008985778818,-1.156815528635607,-0.94918776258234683,0.75656864842110427,-0.039433408602065387,-1.0913461389181525,0.39633240781210566,0.43813774882817735,1.5060488675461698,1.2013918826835892,1.4272602249980924,0.96461323839028712,-0.95113719853976686,-0.10203434352867251,0.13052972589718534,-0.1550272072296672,-0.60786004744635336,-0.4721890672696008,-2.255469545282931,-0.21737756597004321,-0.66228721262099077,0.27345835519534167,-0.91237532522804643,0.58274437512842348,0.94556687142815987,-0.23000406389213274,1.084366096806632,0.1184266097074881,-0.17048697833450754,0.52740189704934148,-0.4172133104874905,0.47622960578022561,1.136308023239982,-0.31194564421801463,0.1765993788499208,1.0872441907620198,0.53493463278871189,-0.70632633750852714,0.61698556244577119,-0.54683306257579389,-0.10370968762597783,1.3366856269500857,-0.23962553470352735,-0.91446430457693217,1.041064350819173,0.20492862695598929,0.58230513996346811,-1.8142829803060914,0.93521112866203637,-0.64812195620434054,0.0040481989501622616,-1.2889124926355031,1.5368265165394401,-0.4521548021815216,-1.8436793937532381,0.69691409229035106,-0.35658853226443882,-2.5193451724748361,-0.63871282976445221,0.16615706069618041,-0.53798290877590749,0.2302247174299869,-0.92251433331899579,1.0772714969432289,-2.0216329195318807,0.011283600414458611,0.4474357635403628,0.29944207182985361,0.85042038947414977,-1.6490798481482836,0.96724181287111788,-0.64027931610923028,0.36225719714067106,-1.0811000123404109,-0.011138046727501898,-1.3373396887582756,1.1174346697063482,-1.0972484657549348,0.93057619550873982,0.16281755733801026,-1.1188975560745062,0.19351617146166913,0.3870398278303675,-1.6020207223674461,-2.181677629668056,1.0262398573269043,0.64157037463897215,-0.14973957832085388,-0.13968084183254967,-1.8096225516345352,-0.56436805550181579,-0.4752046443884832,0.39021176675270142,-1.279945049903281,-0.8866997146290736,-1.9145653458270957,0.0073597412997419885,-0.032240907828873594,1.1800253321301704,-0.3958600572691115,-0.47039423631761068,-1.2601971125191882,1.0914472016381791,2.2584697113502195,-0.64465735670309654,0.24626708728417993,-0.91218724395419115,1.0292055613063484,-0.53788608988135389,-0.64744438256539938,-2.1200995373743514,-0.4174877860172107,0.12852466194649201,-0.3610132309523249,0.3964542926983684,-0.99596554599602671,-1.1678090523594324,1.4759036595680257,-1.1321037923864241,-0.4377414672986315,-1.4374402173929943,-0.23920104230616127,0.24669708861233861,-0.40823184334093671,2.3073210375727502,0.20408923543106858,1.7860411060365939,-1.5563687941887592,0.81275155736043769,-0.20977340909479683,-3.9483964179003253,-1.4485884820660766,-0.76927448981659452,1.5046372207188903,-0.40033126153743237,0.58722111203596739,1.355980865030298,1.2195458102982308,-0.74353002341025909,0.2583747838950563,0.065502481764857401,-1.9257465596526879,-0.94867693359782934,0.20783658895648416,-0.46589315915432644,0.12402132361299564,0.68279962360865432,0.29669687288563618,-0.57106966466958253,-1.2681930312820604,1.3627826998458235,-0.52707580913688168,0.96499713100327711,-1.2065517420699445,1.0982605633138003,-0.608532841932099,1.5748149683048627,-0.60045585703593118,0.79902584039919577,0.68378652321218181,-0.99900726773351223,-0.50961541062828342,0.82033713894557125,-0.054990816298371173,-0.06053476616402273,0.70219443621529187,-0.3078119319807946,0.55543690283197134,0.91374181243323882,-0.0024223188052931643,0.74599159117898972,-0.29428803711015045,0.54248932955267903,-0.78232545505095974,1.2427611528360476,-0.83697198261046912,0.70445951858702938,-0.55406096950589301,1.4695982966776229,0.48582156345711669,-1.157046683639112,2.2749072727659652,-2.2001880781292744,1.3369602021127507,0.67998408559344081,0.23045320613937731,0.33922206272808719,0.23066771142138592,0.27369777436003345,-1.7098111315048716,0.70243988843381489,-0.58077546094159704,-0.95639333857457265,-0.16040702046861427,0.06818011606799855,0.04431748119152961,0.073746822674928755,1.0319255226750192,1.0503958089721914,0.88455672561509702,-0.90497393577436747,-2.1727006443612527,1.1338261822671731,0.6502532732127112,0.24405717813521255,-0.018841212327205415,-0.8456498204049604,2.0635858987581464,-0.36420016685087181,-0.24625011871045607,-0.31473418395778713,0.10292825311489757,-0.13349229779179739,-1.0098166084837594,3.0139826109927927,0.42051720874399623,-1.1318841011666796,0.11531523082151579,-0.43865465025997846,-0.85657202731085014,-1.2855507051070449,0.18515295832100986,0.039981866480614608,-0.80804265844985723,-0.78035929385562897,0.18700668878611174,0.9047248561732314,-1.1193847014953793,-0.73851134653778239,-0.30816284409210387,0.37606723367408795,0.38887351756608962,-1.5308449681059821,-0.55805370368416951,-0.93237770440250101,0.54031130821194562,0.95445427365040858,0.82196699664520501,-1.2420593766990227,-0.098670247407831216,1.5749491518660501,-0.66198018262014713,0.18441427822586801,-0.49084755641365263,0.62241223145945823,-0.82671092970938387,1.3341321659466761,-1.3445835269355231,-1.6722024091451859,-0.044926090488634968,0.33750592355503539,0.051857561866010184,0.075265239290402006,-1.0355598820752805,-1.2669566904346399,-0.68036928996055424,-0.26058167004646354,0.73984086370508273,-1.2009999082652691,0.38833886808492946,-1.1084001016546374,-0.88576480643679401,-0.47922228535477462,0.79710355318502446,-1.8444537336953228,-0.79767363375712874,-0.49007073871193352,1.1936539599905815,-0.11610818652146558,-1.5892597676099052,-0.43201643913715931,-1.2806581200332199,-0.96869525398342948,0.51003549359563982,1.0029490818534204,-0.40517820917033981,0.081746927091205374,2.2871684138227941,-0.69368584007855771,-0.05872841964007991,-1.5993017428511409,0.24278497716041642,1.6690512986846908,-0.64117404602468175,-0.45831336069344464,-1.3901005334052396,-0.69996455868237684,-0.15891158290692733,0.88717905397316255,-1.5724827911676067,1.1927955073464767,1.1264131545737801,-0.071630871615982944,1.2015199670887868,0.010804862968238458,-0.1388875234139344,-2.2597843186606852,0.34829656670071601,0.058051379908759332,0.33114218915904714,0.30579344041725476,-0.47481669688206235,0.32117742424035911,-0.11435185588677965,-1.6396653246207877,0.52584062880973015,-0.27654850467687075,0.96877199246891932,1.5629296206139187,-0.36528299163019012,-1.0153161908111741,-1.2597219357017226,-0.10637173213541279,-0.32658655649913726,1.063080029456158,-0.76535034174915928,0.57051101618131106,0.028727656560950311,-0.03162725468674972,-0.86577741846624201,-1.9125636456607498,-0.51471991272063156,0.17222083108124758,0.84742254998030608,0.30211333113436495,1.0397517629310415,-0.667521860382843,-1.3354903090713619,-0.49634181026046242,0.73976491713721781,-0.35470843888724557,0.56816945705674649,-0.0074478822578418029,-1.8592629513716081,1.3114852293285006,-0.11215456418219159,0.86471303577135106,-0.69107165020799455,-0.34975109757155409,-1.0987764251210987,-1.0354765419405718,-0.51295674649729717,0.31993620334038342,0.12896866741848503,-0.31745437605703325,-1.4317444734960929,-0.35134419370012976,-0.13339970220721725,1.0524528284583747,-0.00097261358954464975,0.2766241994400811,-0.65325137530992528,0.50099250132512962,0.50634561573249981,0.36506486542019362,-0.11003887153652861,0.1273709209174621,1.1595408780910015,0.43576548785215036,-0.40978161499348947,-0.44252689502776943,-0.041704813943650582,-2.3436649692384544,-0.62962461523869961,-1.0450589628319122,2.5855635737101559,-0.010484922176916279,-0.63736707243030366,-0.40024980726905957,-0.48213241670060103,-0.191305873616993,1.3870797016159557,-0.56096598730670966,-0.76056305877463681,-1.3983201335470046,2.0696528137078714,-0.42838093666484972,0.45895763930354977,1.4816104999358848,-0.81160511640262056,-1.035665864298484,0.057778331673553146,-0.80733913991783346,-1.033922551580515,-1.5184887823604603,-0.075307904251783478,-0.10692783148023242,-0.78846033140931437,0.0045357337784801234,-0.58932693898722666,1.197943550876245,0.74374106088361447,-1.3645029633172672,-1.2549216038223541,0.32504033683865768,1.247009030435702,-0.28768757490582586,-0.50199392393476439,-0.35715007271459892,-0.11944379336684148,0.47171976138087468,2.2827028197956851,0.026397668866734718,-0.64747116487102696,-1.5304628608869206,0.1205834712007786,0.44700772932457039,-1.3340847269013882,1.490809204898375,-0.44674149891734999,0.70976385618311666,1.4210149962763905,-0.0733005217206186,2.1641961407025874,0.48658830194041164,-1.3792810291551834,0.70943679975270968,-1.8176721605633412,-0.42610076646714057,-0.50204496109588348,-0.90332125894726312,-0.7450370518513445,-0.65159527687887764,1.3445403855880902,-0.9712852799601398,-0.74768499043594083,-0.28789832426889339,0.76262318406605689,0.31135981891141662,-0.44046506383193462,-2.6107977292422775,-1.6996939377046985,1.4656060375367284,1.4316512864581747,-0.4221152229123154,0.97297024645922359,-1.244403320555298,-0.03607519539758363,0.18044482713048027,3.0937863882105194,0.37480982560502957,-0.40164955638245498,-0.839044714363536,0.65268717707309054,-0.11669813504395753,-0.22616036428465863,0.58354329732281751,-0.46045080365351987,2.0706920332912055,1.5227514409907936,-0.01313013711981891,1.3237221171959108,0.19116553897588043,-1.1500693247348885,-1.2009058194716722,0.5332833829316691,1.5722517053732237,1.6222403688945055,-0.59569333742142971,0.46330558286598061,2.121749565250882,-0.52437313117139495,-0.69367862682464188,1.2425939214728714,0.2657410581289027,-0.67793178953596511,-0.60829976512149142,3.1577655583351518,0.32493478335172038,-0.047555028315621847,1.7807238240353436,0.69571378866996769,-0.69381339260999508,0.31047148247818396,-1.0587313906504245,-0.023093998203924371,0.10073808555699691,0.11555592901913141,0.71024665275309196,0.34065255859133747,-1.0139399872427848,-2.3510240900674759,-0.8550047264796059,-0.84495127579491436,0.50112099600377324,0.76136261657739512,0.83591202787661212,1.3306478932777666,0.63059944745188268,-1.0397735339939129,-0.3291606435586299,0.041257299865484327,-1.818722428554596,-0.08657467383690369,-0.2640175303484214,0.064519134550328261,0.17836542672020739,0.74462636957426476,-0.94388255621274419,1.6153627116482741,1.6801188338586039,1.4211608499981436,0.38459069982183069,0.7866343494961382,-0.22552353204592582,-0.63986848659675621,0.3443468846148629,-1.1467502199468533,-0.50369401800261471,-1.510937486114025,-0.21286111727436663,0.94268347537271235,-0.46033064328561568,-0.061744137703348863,0.94209855744365023,0.26769365905813419,-0.23589446757399204,-1.1478957488826971,-1.1046412594609669,-0.88836196475915263,0.41728155737295108,0.69396009901802846,0.83997335553544805,-1.0291081512925155,0.53464974711191671,-0.38779888121974104,0.30404716786780417,-0.92436257397329846,1.0708467682632048,0.50430917786800966,-0.50028315527669442,-1.4727271516655314,0.61808795870783351,-0.81726350282793481,-1.139951202074172,0.14534261800030301,0.92622533510390936,0.4037393173218824,-2.3077807303493088,-1.3774459457261299,0.21789920511658856,-0.33976734883125315,2.0104514949200478,-1.3919693081159756,0.12335763190105478,-0.38823593151252106,-0.7351513517545063,-0.2001584139212588,-0.38380287765059762,-0.076644268386535722,-0.67488438468507639,-0.68261104862645816,0.55164588782323865,-0.56277067978902973,-1.3561798287945286,-0.72363786822076159,2.3401909253097259,-0.52942042013321233,0.41674178347128749,-0.21033297270461968,0.47952494416691566,1.7950099396571082,-0.88480102335858279,-1.0931236783170761,-1.0558523505299751,0.26177701891076688,-0.9722996930671105,-0.74760234242378321,1.7420931043109693,-0.89131921554306648,0.93995521867794896,1.152292412768386,-2.0478346165061301,0.53102498210824645,0.72738905571881163,-1.2482183321617992,-0.39503273584505416,-0.38650111891947797,2.0974540641229735,-0.94272909091887125,-1.5723313145696634,0.18341117177277155,0.35871973940701624,-0.049973118345082862,-0.443449433238988,0.2144567249644373,0.55248467581284821,-2.3022659260298801,0.5436962987701639,0.071531886434852976,-1.7729970137861468,-0.30244109755271031,-0.3120104920449413,-0.63682580012014689,-1.4350500838854867,-0.41740442693429214,-0.95679138757937821,-0.23666240427736934,-0.59984268733968249,0.94686461627441076,0.053684182927879964,-0.31961971070376394,-1.0051353779920367,-0.89134746567091261,-0.58352386656267619,-0.21801459328792128,-0.65735627598394442,0.6367661043772308,-0.040796210970984334,1.0353019868598863,0.15802693961883843,0.67092510350129586,-0.22064804686031339,-0.88738178903741149,-1.2420684367029788,0.35187058222410272,-0.32285848339676493,1.6554787302191454,-0.16928130735024191,-1.0802789253531289,0.32625250799494582,0.94686288561640775,0.79948108535653417,-0.1063868348666704,0.78501025078038245,1.1065918771095364,1.3115406013361517,0.40959822729001788,0.79979965086424698,0.10032541006111262,-0.71317204030057968,1.4831896431015121,0.3601525610585492,-0.77809135108648642,-0.17635524837974256,0.59313698077035948,0.036170786394037514,-0.10913897422734098,0.62557966178640945,1.4328519193118856,-1.0718294009560401,-0.10518526965770389,-0.46795455957858478,-1.75535055986233,0.4403656233575764,1.9073838074748877,-0.2069810907622241,-0.59762642334435401,1.3136557685207884,-0.70508757392915533,1.7948673568079008,-0.84264507257273191,-1.4201398959918901,-0.18566648509739675,-0.3633771331676674,-1.2252491885342431,-1.1005852340194049,-2.154334488542168,0.073779599600223525,-0.24230598668675843,-0.2976560920448712,0.14417623108833375,-0.090303524677466551,0.24658660102693258,2.2988106222340203,0.6143458620819422,1.2480672231960215,0.92421045057788254,0.86455318775420242,1.3872350997593463,1.6605081258411123,3.1883917551475132,1.2201984187593402,0.43891535436088391,1.4406654734097841,-0.75695525653327556,-0.006465272783920185,-0.97389222300887701,-0.43206867365720719,-0.93227899376669554,-0.94725613413787946,-0.20581936397159653,-1.3481925364036393,-0.47034862644595732,1.2878652589323207,-0.86007863011476504,-0.17476063325056171,1.5155621256235645,1.6292189164047264,-0.72427986134245215,-0.33651804965985227,-2.6695141454358837,0.74815712399122503,0.59665424016930446,0.95388649626644872,-1.1396681234465753,-0.39650956399890602,-1.1799345046910112,1.0387700255164205,1.4202850230396113,0.70487762665559661,-1.0577456190720247,-0.3295963108646543,0.72433825242443595,-1.1766934957728352,1.1404923348952305,-1.1369217794591269,0.17399080417313789,1.9534323584094428,-0.54752666066592137,-1.1588458760559324,0.40904971088106756,1.4284011930999678,0.78961190947014737,-0.80074187180973622,0.073461533357359055,-0.61606972517743441,0.90387338844291676,0.2773261877738144,0.71140214590336781,-0.020224570099242587,0.39773213331816215,1.7515308219396695,0.22549861505355104,-0.53039926102350221,0.40106248943927203,-0.58558985353556425,-0.38071651164524234,-0.65963279128608387,-1.5101789527459575,1.0840742649436395,-1.6338325363374269,0.32396463596899017,0.83177940978007658,0.50578909859297982,-0.50817314715973738,-0.70843331800812315,-0.31136420659384106,0.91343598579562679,-2.0252383128311044,-0.94121906701642066,-0.13353878390518095,-0.70775012911611057,0.12454991294113292,-1.2967206044121558,1.5575362576338894,-0.78491463910586567,-2.0692969338172915,-1.4862877622660884,-0.083856926432280016,-1.6899986228650026,0.52939720354709585,-0.05058556260668131,-0.20945971676868916,-1.2378444785974538,-0.44517353922877889,-0.10934367529152746,1.0620778890202358,2.1947859978177515,-0.3394403065838183,0.99047997782441699,-0.48023425739821946,0.60630939180609067,0.54865387301810198,0.068360403485872828,-0.49897912909803421,-1.1035628652893774,1.4115912109121902,-0.27990099949010505,-0.065380363091404575,0.16881808791457334,-0.86621302176144377,-0.68404509061273211,0.40519472630391201,1.7204414429809891,0.40109411951250307,-0.27879572008625048,0.17743025093295042,0.64699195516111119,-0.87286640824784578,-0.23326796414153247,-0.42564402794329942,0.37038994353650084,0.050227390337069341,0.7671176985237087,0.68156918763634755,-0.21549267008313944,-0.94349536331737449,0.36016245906815803,-0.27495094181493862,-1.5745911590134796,-0.55145574322486046,1.448624246857305,-0.51018570655663731,0.80624181310931486,-0.57679397122153009,-1.2762608624758733,-0.069998906361087007,-0.63795889742835732,-0.81105490023937232,-0.23933323014419464,2.384385281461852,2.571920931392325,0.201009331438401,-2.0116854325260252,-0.30137037890727275,-1.8882071690688018,0.7851906967813882,-1.5153847096019961,0.10190956666816008,0.75408221096243988,-1.5522808994910686,-0.24526620940289889,2.3886351274364528,0.0045706339095706065,1.4590610642652233,0.73432751116782369,-0.45938703421954041,-1.2300056359939087,0.66617443785931674,-0.40477245449784405,-0.38426022472290894,-0.39571436991368197,-1.191566987988538,1.1711602968745209,1.3344240882301093,0.37624106312630345,-0.5304849497103814,1.0089862548528572,0.42304464592488139,-0.72389365934313099,0.5327963997840961,0.77185634726549324,-0.48320739075070329,0.98700200685488426,1.3287106835986366,-0.050625518748207469,-0.94972805499661461,0.060422815868889583,0.01343335979601816,-1.7276151532332304,1.4102894285015204,0.52429362788007128,-0.233422133752899,1.4508432725472475,-1.1934034224174002,-0.62352159325836232,0.98120635341027351,1.4250329973588718,0.78012795907731303,-0.23615819408753752,-0.71186802645769554,-0.26833439477992543,-0.84577273992425051,-0.15666845015411404,0.8478001791599169,1.55711750314112,-0.95430541937773783,-0.51050807168384327,0.26587481590065526,0.47247531911254437,0.70345315977535494,0.93015461144962663,-0.28241721384395202,1.414368382241328,-0.11090108053341211,0.62807736448055429,-0.75743366833071202,0.15704257397805785,-0.18555022279685671,1.08220649698534,0.47243801706865657,-2.603043179263334,-0.56821199782817611,-1.2373169732580402,-0.85306437361073228,-0.75085059607022564,-0.13093472824436433,-0.067376249686039419,0.10304102813298427,-0.11856682021451964,1.7116244209896732,-0.038324828296025133,1.0421154010626112,-0.30650277373401058,1.4490755009962413,-0.61180294257747692,-0.66563189583013538,0.10474455317263923,0.26750588037022405,1.3662308685803466,-1.6411794282741132,0.38366881516064211,0.78617942386897155,0.14224193690643458,-1.8549361507941073,0.55096664333911638,1.5290842108510547,-0.82792102316740779,0.64994868893269486,0.22612783186965063,0.8821382851447328,0.39572776869844878,0.83488241410860353,0.66105825087635195,0.42955478682629555,-0.52945973712843231,0.2027447707965967,-1.0597453659864922,-0.99138809361339864,0.41798147154739934,-0.31340687928150018,0.026682801917764763,1.0643200637891479,0.22562242908479621,-0.49438829155527619,-0.1989697306066289,-1.4826041872897975,-1.8051158181286766,-2.0069743904449409,0.71571406650472891,0.35626933483924006,-0.042850598694420199,-2.1463215134379978,-0.050297937166471532,-0.93823337876289004,1.0928980623252713,-0.14079100944069542,1.4660412404350036,-0.4400911700841893,1.3591961509440504,-0.61967803117272202,-0.81609636213613412,0.092397184110005623,-1.5838553226989347,-0.97978280660422512,-0.090966567582516325,1.2928246638214429,-0.25694598189049916,1.3288068374082289,1.0717861396818722,1.0716425986462232,-0.13312391928533612,1.0423844811308571,-0.14419956280140461,-0.43152033421273028,0.87729268823831374,1.3087750425270339,0.50601977012171162,-0.95612423532111812,0.2279398617779925,-0.62311361097310036,-0.2119286583523054,-1.4314446204617717,-0.50715529829018546,-0.34288936611070475,-0.36560443062107217,0.77602890560625037,-1.3781168227639873,0.0183127234884124,-0.49170886892338783,-1.0038547287677717,2.3403445108664522,1.7105539487906607,0.65179250151064649,-0.27732806966592688,-1.7113392609381015,-0.98952570790349526,-1.0397522118922282,-1.6778134822475805,-1.6165028045185941,0.084114857716653862,1.0536743691877319,0.41898673676320597,0.39910502964351069,-1.1595412415913884,-1.5637081178018903,0.55168501964988226,-0.16671693987079073,0.5858792464752236,2.7989888395122011,-1.1941465428789049,-0.96863536875084555,-0.43732074632712575,-2.4748584238969267,-0.85045258568847626,0.11998489595027736,0.53704309876199641,-1.1747429988903242,1.235252424185789,-0.51020148647195906,-0.23843045337155963,0.34876005655148523,0.023805128615815841,0.72803428384271396,-0.34385008904045161,-0.19899089708206905,-0.73166329434589672,-1.1316778503046296,-1.3076964958695323,0.56182322651857541,1.4234614523546638,-0.51414518687645783,0.63637897584207725,-0.43927685367819519,0.71048916542307861,1.7531134684758352,-0.099490946994438292,-0.44032864057667725,0.32511910597483756,1.8840197375386758,-0.31368798551199223,0.87231033247050971,-1.3132755615162859,-0.89865819854355744,-0.049977429075252038,0.76139969513772499,-1.9369847277143626,-0.012551355736074519,1.131200276820101,1.7544352076507921,0.90344261411501992,-1.4782554858823531,-0.55247807160877338,0.41583404281485314,-0.23273772685865238,1.6782226329868168,-0.036250355304706515,-0.38829711845469106,0.065276705556438025,-0.05270183918646399,-0.36929696507648313,-2.0221226388338311,0.6570580412304281,-0.88043377753276342,-0.23658501861506506,-2.5311374534847446,-0.42542435966872344,2.1853302549490268,-0.72185080757510633,0.41941286406752831,0.15945881971822684,-0.18367894288958597,0.15293471900975103,-1.0902170721404203,1.415434312229263,1.0203447870362294,-1.3740316118900746,1.1111433730294991,-0.10822359071077434,0.29552058259476999,-0.74990983414505075,1.5039819646991803,1.5903739597189352,0.87375589515059227,-1.3612140518843663,1.4108156647856493,0.80714976880694145,-0.51887820397769013,-0.14011185200397877,-0.2728136787767369,0.40836373067592568,1.3028155243938013,1.7732754525145471,0.18518964771226534,-1.5078749349709648,0.96465344490414162,0.30738724306448123,-0.25384907762193504,-1.1797621301335313,-1.1386788639701177,-0.29202176885291103,-1.2232592920410508,-0.85837505508942158,0.85539086121673946,0.26111736822281889,0.6010419567200489,-1.8066004108739395,-0.86706384459536112,-0.55407665284252627,0.27356123858985204,-1.4878871745703737,-0.17165693690544753,-1.0285596422522614,-1.9789319346575509,1.3149068937619237,2.847723685076851,-0.79574995975506368,0.84682422421921677,-0.019089186216346758,0.67000850366455744,-0.16151486322924796,0.83113300904926146,-1.7878215988124539,-2.4464961998700692,-0.81054103610895911,-0.035484059938673873,1.584994610748347,-1.9936161576756017,-0.33410952162242508,0.45637455418207573,0.33503638418439619,1.755402008111187,-0.85299690664229266,-1.8498031761159606,-1.317304964390779,0.25869398140764099,-1.5919876640182593,-0.84579007303988418,-0.57417986093354945,0.15873989525495713,0.52145952379747007,0.098452952103987135,0.27860557215384152,-0.018664961939932983,-2.0081097691733807,-0.061463565751203653,0.45942815209263682,-1.5285846575124427,-1.3250178958249399,0.074406436075772589,0.46681445359941304,-1.2765830967540612,-0.20670820374048676,0.70014870794265271,-1.9293325409130186,-0.99155860789039907,-1.036152424102603,-0.03216332662744769,2.0568113162299504,0.60152336467663925,2.0848748923262468,0.73521347140738691,-0.93461761521600395,-0.98212703932085033,1.3032570917485504,-0.96040862613209077,0.1926417885032434,0.16467633853155633,0.20890377391366038,0.90780442111963144,0.59832888864394529,-0.88386179419735222,0.59843278901625296,-0.59555522712180109,0.15905138429242882,-0.099907866690822911,0.34799947855697649,-0.83955111511883873,-0.37400254546216477,-0.72892798905228917,-0.071041066725458832,-1.0363298348667191,0.37460196810141067,-1.179898233260545,1.8318693335848522,0.10572183484305282,-0.3349949942485716,-0.60438516938053166,-0.56454759771582397,1.7821938121165066,-1.2528334330145734,-1.9014444022059174,-0.99609903852130965,1.2548073553361412,1.0647943149796273,-0.65278364385411713,0.29359809658573632,-0.39497391933786002,0.17702792412826096,2.7892985354777826,-0.2254235430656957,0.73891809338700676,0.40689900220318376,-1.6868795264243777,1.3981199105530424,-0.15762126585946137,0.30855917930097532,-0.15524199892832757,-0.41931400281915471,1.0005538527956708,0.086982327910286192,-0.142259481957795,-0.65662384566484899,0.86788345168884751,0.67394331571201027,-0.61386203094477487,-1.5059788393350737,0.48609182435789933,-1.1165565207120496,0.4501190536653536,-0.076358621060518092,0.50066706223060364,1.68295135191127,0.2968012694128303,-0.027974252272388988,-0.73036935457028851,0.35478602643352181,-0.01658341279512706,0.46538615751893758,-1.0351356286002757,1.0259414248943162,-1.4748918878173984,0.10864442347007602,-0.085166462232496021,2.2798581982305808,-0.35221852003213866,0.32061124628699084,0.38243168246256859,0.4832643763543743,0.75277412502641261,0.94251598399752823,0.11642077976276946,-1.1936127261984859,1.9987270949109015,-0.025970631956382939,1.8255444288309088,-1.2128135178119623,0.84779890744670294,0.31168519359956492,1.6524262107796439,-1.1024684182530324,0.30955675070104427,0.96164328306163271,-0.34750383821174419,-0.7830424938028151,-0.67189457029185429,-0.86866596544503882,-1.0278111968209813,0.97965380136405655,-0.060066055623902326,0.53520733899977346,-0.31018066321687882,1.6032453877464801,-0.75575835449875306,1.6866940688350271,1.5963895399914536,1.0433885606233928,1.1074519741195366,-1.1433171219040124,0.39523352443992943,-1.3873864391146287,0.89759666566255625,1.0954658755251194,-0.81577889093568501,-0.10556057994064597,-1.3389313353352381,1.0890299608778891,-0.015553509897814618,0.43287852378116265,0.25830049235781483,0.31555423018736051,0.1276488218394855,-1.5511944023139972,0.64669895660320831,-0.62162002752727996,0.91133497276903441,0.95144885901827059,-0.67248131390132204,-2.1334136062397802,-0.22478515085913703,-1.6364200984772652,-0.43717205211706656,-0.96211112044410996,1.0929480136771923,-0.32957756445087416,-1.8127329067876612,0.32728858259662147,-1.25643172313296,2.615628474827286,-0.33711700996053406,1.225920009378995,1.5736550018810884,0.48182678178616695,-1.5451496073342799,-1.2884991874138421,-0.22272383329200343,-0.61380993289231645,-1.4803062783189469,0.056016907198729662,-1.0268989471008578,0.92599378193193282,1.0653282161155133,-0.80148208273370103,0.42433688023306859,-0.2694844759877032,1.2757122464260058,-0.38627729591883558,-0.022365930723038517,0.98449974017319253,2.2833530066288312,1.0289267625926009,-0.88658280149127866,-1.016062466837004,-1.1268845628175768,0.2116744423583018,-0.41856221925923087,-0.71978287880351266,1.9732738858304633,1.1671753321511158,-1.0132132512306009,1.583283281732726,-1.6837679617294057,0.21774391579437888,0.72653140706663666,0.22916139931247298,0.45850398233070144,-1.3831578807135998,0.57435869528666184,0.18008068812048705,0.12457358895564542,1.2899442642312586,-1.0914767448831484,-1.2456250962272133,-1.033349272153461,-0.29218314596799622,-0.5339268254273275,0.75641033838884364,-1.1030808626268063,-1.2580162384925224,-1.5670002854222449,-0.046896105597016395,0.28913562042388768,0.15692072735779644,0.81608378398685544,-0.58399103667996333,0.91283345749203704,-0.24338153300687768,2.3997595194285131,-0.68940574157523227,0.02480437648130587,-1.0197154804749837,0.29688295846019874,1.9418518560465914,0.52836828332969088,1.8086621018439233,1.0704377490988874,-1.1105394967688846,1.1024079838155003,0.26794403866102268,-0.41438675578930606,-0.78937534325429981,0.76386487261885283,-0.23391621088124803,1.0191043402684854,-1.0393137253081133,0.3071404820390114,-0.67881385946519179,-1.3382306530284001,0.48628811541379391,0.19780289029210302,0.078029380721506947,1.0368563605122807,0.096857428940487961,1.0800120411819518,-1.3413004828966473,-1.3543354639167622,-1.1266251951697104,-0.17486066234978462,-2.1809329954566778,-1.7445955639215025,-0.49674515275567216,0.6014343601502854,0.06471086424668139,0.048615084967610869,-0.24387095306020465,0.41134414228610194,0.12379535538947034,0.044560040871655472,0.85102333358781923,-0.82590172957527419,1.2275160887263685,0.55893570458871111,-0.37878969020225928,-0.97375060365783139,-1.656366916728466,-0.267368633202683,-0.038701343434705694,-0.54415699543596818,0.98196719789495202,0.21337107152579757,-1.3097031857468591,0.26929439935656774,-0.41876734724981673,0.25531325396704085,0.62186379378874634,-0.14276752782122562,-1.1404843602107559,-0.68878475271923068,-1.4858927690732271,-1.0301259938836755,-0.22172976002389808,1.1768468730721555,-1.7770042872713308,0.29793861458555299,0.52667746991517983,0.29716205864378448,1.1483721891764087,-0.9901991292011596,-0.14814393748838806,-0.86074427599512482,-0.013061379800569465,0.1543330515398029,-0.14083235785706361,0.50495788845246992,-0.023904186134211684,-1.0463707430410616,0.35460127325655144,1.0425382252742108,0.53242969564518061,0.50740037820743689,0.91837429266956749,0.68209649598428146,2.5043355598365631,-1.1275388449299162,-0.98775431221271959,0.11394413944200552,0.78661882954922002,0.65162892717932652,0.9678196540865085,-1.1989970472227252,0.3666868609737412,-0.29861278607736985,-1.8224887277236157,0.35857216615058679,0.0055942467662438277,-0.83437244492985385,2.7581854458676465,0.11538591339331135,0.76391008846250474,-1.8771775855198436,0.38524632832270395,-2.6158010375568712,0.1294947373036332,0.54286151076381983,0.6935846803045953,0.19823600748975051,0.58251603294546861,0.41405655513612549,0.64072804403337658,-0.21276476992064633,-0.16320406296374196,1.1840122158767121,1.7754182305115054,-0.83149589113915778,0.69004989107826609,-1.5100053537976879,-0.33275110639090433,-0.92576271941743682,-0.091996610353139385,0.66835321076582166,1.2892259509184607,-1.8473247148813312,1.1249782455633397,-0.18006768221328323,-0.13230854618763949,1.2495252437311195,-0.24174175427892103,0.2071133775247499,0.056103711055270601,-0.024601249746802126,0.60866941147635589,1.8147310426281229,-0.93093685110978297,0.40188021638308763,-0.82000715334662388,1.3862156407190032,0.28518309587639901,1.0031986000723756,0.31015196752780089,0.8007570583757545,-1.433081616508231,0.27667667466816548,-1.6650258368945112,1.1610045466592307,-1.6191680213486261,-0.45471602037745246,0.29225943363619306,0.76378671707789136,2.4343069484882665,0.45225106196704257,1.2345577904697946,1.2656094728426501,0.18553929325091867,-1.7041156957654116,1.3323211481690489,-0.28187160276892681,-0.086193235347427066,-0.15492668397866818,3.2716433683867945,0.53030481920671613,-0.90094052485284992,-0.0066371196833742083,-1.3148392303367049,-1.4044347041144527,0.92010808222391383,-0.12765195568222212,2.8717580270248626,-0.35873111488135356,0.81093493523087268,-0.0026459463502938292,0.0020958081751778221,-0.26125292132671135,2.0941074149216918,2.22157951511524,-0.21536527502122307,-1.2566183526477337,0.52902946435318743,-1.5313042125101639,0.77763346460177762,-0.70500264507669319,-0.34417541474541863,0.43956694575766048,-0.75738306887004503,-0.54765224874574558,0.88623615314766369,-1.478600466921234,-0.090577797683948844,-0.077403444577704789,-0.2385490498950921,0.34052749887165423,-1.2010304159743874,-0.22408026358753483,-2.1712303481725335,0.085766272664468651,-0.0036968734129662058,-0.031209043702696462,0.012900966019694093,0.038796229392855867,-0.84148451197047047,0.57191315269077536,-0.70273553232756791,-0.68519856915651334,1.580466888229642,-0.20020988716581917,-0.85294396057008137,0.52777096238559307,1.0100794877026218,0.14164421151149126,-0.71013041513121333,0.43674868865141603,0.74393148057396374,-0.40263359126103804,0.91071299040102205,0.35349609970263846,-0.041508615122244408,1.145614607657073,0.69914356265061484,0.61303623323541201,0.10355219259079544,-1.8097401117848404,-2.5428594964272913,-1.6994707168518268,-0.59841907549203099,-0.40216543621313927,-1.0219542406451982,1.3580905119791509,0.10504564615017636,-0.43478335499741555,-0.6791905576751337,2.7723256218638963,-0.27057375365918229,-0.87531724517086884,2.3031271328474334,0.25425807807604539,-0.070576559812150164,-0.25165364199693629,0.27287473252376049,-1.3773861613879204,0.35207639612958003,0.67859833473583087,0.89897204220913951,-0.041250909689974129,0.48984156688461061,1.2397874207153943,1.9462965296473536,-0.081947082128299639,0.63565954720238416,-1.4419202656292986,0.3643380218675405,-1.8536507540474707,-0.29673123289175285,-0.82820501094456966,-0.52900279793215033,-0.77879968507981434,-0.077127290997024853,-1.1541826632294654,-0.5321004676962936,-0.30589017297656224,-0.27772660728242365,-1.2314235669722928,0.35698956132267956,1.2266155375713981,-0.085912344698124449,0.099199290386198069,-0.52648248209952975,0.51049593628216505,0.57092932247840089,-0.77795058079659785,-0.40580611038852393,0.573071151734454,0.69576811361774249,0.96475179508884379,-1.7524556909930178,-0.88431166903018488,-0.57637834699007373,-0.84053407830461668,1.1657794826424612,-1.9502350381929756,-0.31287960732435116,-0.91970595710042902,0.79025829290322291,0.0033282590260933385,-0.86487296552655257,-0.29076650283557198,1.0205135391790372,-0.40678111077274653,0.17452448281852337,-0.99905437433419286,-1.4628943700142287,-1.6233657831252395,0.16186633207915399,0.40755361212262708,-1.1997603889561126,-1.3236221559305434,0.32983989327275087,-0.16900586020681915,-0.45418096200497754,1.3469881603414593,-0.84902535791068356,1.4755122404932848,2.0037230869676539,0.20392571309332927,-0.18151830291632076,-1.030006197996115,0.60409989726948587,-0.24311125771631259,0.037776989110206403,-1.2614263823538461,-0.14890123084733883,-0.36305837707542726,0.22607158661247129,-1.5669228630583112,-1.1019266555343776,-0.0051836662791717421,0.70316691342672832,0.82808380164238227,0.087560979040882683,1.8393188690160345,2.5491632026983559,2.2429808658045971,-1.2822475154259854,1.2548775928853915,0.71383503598176956,0.34369622531393285,-0.66733138145366555,-0.5602199583260179,-0.039023229189622456,-1.5864993589663128,1.3809075643581199,1.0898901960828415,0.22389404771420376,0.89131457223252009,-0.52345017665210847,0.74839515116971345,1.0131567504114471,0.17871873238052458,-2.3440759319009929,-1.7532835957894761,0.22449734932568705,0.33343672260883106,0.82603768503185471,0.56689884610402363,0.60045338154306815,0.25867414208582162,-0.56481302599649119,-0.55035156479767933,1.2144063629609505,0.80677601099669416,-1.2106164033880868,0.33563818854696387,-0.6694353985206406,0.23374763076593383,0.32268440966034545,0.36935892447599877,0.34426804086683471,0.53562468669960583,0.9514663482561424,-1.7196488892235682,-1.4813464856868668,-1.0210864260644672,-0.70733849231107204,0.32478893427048416,-0.39566106466560419,-1.576170738545043,0.32368723887335604,-1.8345582223636991,0.60079707015292949,-0.61073102148479852,1.6759038784542857,-0.89944101337910953,0.37916785577160683,-0.80544390865050353,-1.0894455495750566,1.0716663028760725,0.13708360417163651,-0.93764933469281375,0.89518592077338166,0.6716156473955559,-0.57515457759968625,1.1548065123286633,-0.12584923363147624,-1.0107281448225345,0.59427444828803055,2.3073413749845018,0.55476913923386251,-0.17137461736242576,0.56164054045444656,-1.2466571332240044,2.0696025271496228,-1.5607795478902167,-0.44106013313599152,-0.5422316969432075,0.13883691906783141,-0.42626327403141362,0.32810625368837776,1.0499149716571672,-0.12375647374505004,0.60901516290669999,1.4324185001166656,-0.77081359528137139,-0.51393102849117211,-2.7333680806699876,-1.5356234720698059,0.49933743445060114,0.4683778435998282,-0.1827482647439426,-0.60084515143347839,1.7129344929033239,1.0376480205136536,-0.20114011868104656,0.86023509287960576,-1.84777659644012,-0.17650786528381948,0.10725852966074463,-1.6888675084792431,-2.3701309225760232,0.72254654118640405,0.55166863205295336,-1.0343603412727178,-0.44936228046312432,0.3639048067755779,0.14121168042778681,1.3442772453662299,0.14522106244046301,0.21970802549788085,0.41147466702183055,-0.66391350439640429,0.84550273543159449,-0.6371050175264138,-0.0862945501158007,-0.027588184007174717,0.41072128680083886,-0.27143487177888254,-0.60661463027288054,-0.78294860602497574,0.5362504185719742,1.1227903041361702,-0.70056696117472816,0.93180608784421615,0.73367449169961607,1.2535813569782073,-1.3257141787604105,-0.87432638247716388,-0.72348740071082918,-0.2918135442226451,0.23376579450477511,-2.3102858117820757,0.91587899259315464,-2.1584601017425404,-0.38067557000575619,-1.3921096529614174,-0.41279857904289063,-0.1907077606738567,-0.1664153529104033,-0.033548842671610561,-0.19009797209993287,0.14713770003619284,-2.5622948888433106,-1.4365140530824647,0.11192941960939044,-0.70954981164746356,-2.7787921105130811,0.18564084807285661,-0.96759784156594408,1.0236420467639917,-0.18264135838498102,-1.2579210670545953,0.87410872203319734,-0.18685179980146044,-0.34391747278940449,0.27877446230796965,1.5258279824908199,0.9705094966955442,-0.73576231214205201,0.96721428375885565,-0.66401715608392708,-0.98096766759227283,0.36101161670780513,0.2318141449862072,0.5863209201722428,-0.96371598085862653,-0.71859447179821334,0.063042425211500525,-0.41017146774830421,0.38367971386362287,-1.88384121078584,-0.099553528598522067,-1.0705287322317416,-1.0006075634961187,0.55283415367260258,-1.1394570425495116,-0.50963304239663443,-1.0148714267943832,-1.404927057310335,0.88795423483164859,-0.16102472749012009,-0.62551068249228425,-1.421435901221147,1.2147048260736681,0.062668089647220274,0.61713673364357535,0.54757766141433095,2.1534973960426735,-0.64353400037621722,-0.83065368524913219,0.045541132092371317,-1.2693054033601616,-1.2477606158743786,0.59111962516767702,-0.23121666741954375,-1.9654847149229644,-0.93938913721040185,0.2655459181722315,-0.75901656210313639,0.23469453394634918,1.0525177578050666,-0.93640832634194293,-0.15967461779616551,1.1283447172628294,-1.0144654702891858,-1.2310282145398488,1.757014911020967,-1.3838679703225707,-0.73432023567291771,-0.84067432800984943,-0.60826269279809542,1.2212709703464344,0.068414083101533005,1.2889889947131805,-1.6126157640948604,-1.3730757263976374,1.3012691337145799,-0.87771348561827334,0.028876046179878413,-1.1614131009950412,0.177166751555031,-0.56455868879452409,0.88419048122705979,0.16459956990556196,0.61729194051240932,1.5450266973891305,-0.86454178406288196,0.012949523344353068,-0.85008835651009906,0.1510095715593745,-0.94326421900790303,0.44602483659218789,0.087103650811793193,-0.27581240646694244,1.2461137547599435,-0.25671367839094006,-1.4505555510350159,0.035603529898593139,-0.48943652669454218,1.3709915679823148,0.82255031086558605,-1.8093709242887692,0.036927479694689382,1.0299339298203558,1.010702928379746,0.19797096799480945,0.10355779477970432,-1.8800301334377587,1.8033681295088215,-0.91032055202190854,-0.77219139524163882,-0.063652198362342913,-0.3119170350971095,-1.6353003234606047,-1.5039692445637507,0.03159213405855487,0.09568385428030958,-0.165941098461,-3.1542293794968757,0.79556353370782362,-0.22463330284821331,0.81169201372737332,2.2769438278932639,-0.89992083249584021,-1.6243403126490286,-0.35724059365804522,0.86464303656060926,0.59478047638711629,-0.23353565443088489,0.52221043969371583,0.38491631385605596,-0.31372056781242852,0.92793132148032009,1.4095228598158389,-1.1840192325785117,0.4897472345234466,-0.42069652590900924,-0.37233177992979855,0.16378312305327641,0.11264849113877815,-3.0393052366891524,-2.3061746819212781,0.88254577058750616,-0.27474671406682871,0.79167455968098011,2.0433660868037373,-1.7480069601328738,0.42800194200614716,-0.2704155374681334,-1.0817720979687921,0.88266656539068078,0.068646664432058496,0.33756168884252308,1.8191187126069763,0.74155267544461045,0.98156677842693618,1.4567843139420646,-0.86339461122701699,-0.053423106864174369,-1.0830014825672361,-0.70767247021895152,0.18872274380494647,0.69357663947173476,0.25070626665867118,-2.0798912754118617,0.27519053220075568,0.49335237383945535,-0.54775094196983309,0.41262454694538098,-0.23614003057495062,-0.4158459810533246,1.4356764371364841,0.42007718763762963,1.9007872698972923,-0.92646671240806655,-0.082299945490546242,-0.45030508106489769,0.59982162479365864,-1.154861394972081,0.16293232798581547,-0.79325195690853578,0.041113862061324606,0.30922574910143258,0.40543456830333519,-0.76909259009331066,1.256200491227448,1.2935287896866348,0.80311804908327444,-0.14606767083295186,0.86773100786083979,-0.25313370871094576,1.3934669650286882,0.69564451300733909,0.56856224348086959,-1.1803104260012298,1.6226331732424908,0.33866901346510314,-0.77833327833267596,-2.5261648299562998,0.34548393877568051,1.1432754241846157,1.1509666103919056,-1.0110756597793598,-2.189215718955047,0.64252376280682322,0.085991903148697174,-1.865207914672528,-0.65442005348738264,-1.6557510746453741,0.078888624726771508,0.55906889986921915,-1.5186208586583188,-2.4720561110487065,-0.42153555505362067,0.48472468225772902,-0.961997729160598,0.87497611291649025,-0.014236225126644153,-0.26664206084778957,-1.5996760452839747,1.1773219236544692,0.17266657934297641,-1.2176649303830456,1.232263737904105,1.6134589773436958,0.26662988345880118,0.57556250742636972,-1.0304237611556339,-0.19109369719675259,0.4323253592301653,-0.20720003717923538,0.26673476360829013,1.0881435138816333,-0.45062023835280535,-1.5566548144171584,0.040145255158971431,1.0640784208420324,-0.11572269825157686,-1.266852932490635,1.1303356898626402,-1.5722935412298651,0.5810451025142781,-0.94789860753119159,-0.89021487674146094,1.7267824427251011,-0.153377920068722,0.43571841622300067,0.78923775175674826,-0.038448065826158638,-0.3487498225702852,0.074192596765257579,-1.1642612448382235,0.031735091218683668,-2.1920518220196894,1.3007209759321816,-0.49300895988864535,1.3602515002897098,0.32007864435028877,-0.66944766255573074,0.82041342166594589,0.93106986000045167,1.8230754365413253,0.86561289415303655,1.0352099368370429,0.37888149545290439,-1.0536949169927228,1.5446078019571181,-0.18094484338292338,-0.27820934210506726,0.53683577660253101,-0.46569587953794161,0.23373252311944026,0.48677074196666575,-0.14959557784824093,-0.74771909576367512,1.1860770924588402,-1.2646331828209127,-0.95567944656563286,0.78825198161882759,-0.29640072332296974,1.0966156848893116,0.3616256788990716,-0.69396126218879495,-1.6182868427621684,-1.0070366397614472,-1.5760153686509542,-1.2622304373078548,1.6095118036266771,-1.4609417889097851,0.67335067858583764,-1.9882396829681075,-0.63130794334813423,1.0142307740635976,-2.3558505900867424,0.18813457861406374,-1.9864153443863013,-0.16715486218201886,0.93484041371621029,-0.40896446588020624,-1.1777741302294671,-0.2138567740937671,-0.070149212546428266,0.2616076808475033,-0.082858494860699655,1.4762523392708857,-1.5019107611614382,-0.16087027485048991,0.70952871133908335,0.060263505847354022,-0.29573585533020913,0.65624798202054491,-1.4062455341073756,-2.2554093869051721,0.71525827318648327,-0.80312263873113909,-1.4597595346376002,-0.69418087427290864,0.15800151029512616,-0.51440285446286138,-0.89213366933551164,1.0357224442488018,-1.0130891401574116,0.70635651577435621,-1.3631534985353009,-0.59180244121799119,0.43573068237416962,1.7758541422666569,0.31871283771559078,-0.33362090631034258,-1.1159122741509762,0.33432815767029789,0.32192656217018678,-0.30858751347752911,-1.0377913498215872,1.146843374293937,-0.74620638185552612,0.26874153521040872,0.46321513980273843,0.31212835761461005,1.0412275457615141,0.50143033673462045,-0.44889229536012487,-1.2241942655306775,-1.5413992065134408,-1.9329528959975564,0.24085547289376508,0.33212519122259904,-0.5847674273042861,-0.45762375147537826,-0.71256510491516689,1.1443406768651878,1.9199815759779175,0.1205066437604065,0.63190220753446324,0.33026130074001325,-0.17613444932459429,-0.37334902066259462,0.0046244847199519521,-1.2499708854799993
