0.29874630213282233,-0.38220086728256841,1.3404180466674938,0.4575166679623881,0.54038785785083143,0.064043572531198897,0.40884201815017468,0.4656837508989029,-0.31651992835397569,0.55042999506009216,0.5088682678575186,0.71928031411327398,-0.63243541579040485,0.81496940590567002,-0.68144564714820322,-0.46517711732819872,-1.2504647504127469,0.28820206049603148,-1.7969357239550841,0.020569802499054695,-0.55695783181186542,0.144639003966296,0.79455992175617729,-1.7215361186398999,0.75376598758363622,-1.2980097220181559,-0.69298362087742249,-0.65797352223057182,1.1327488358117141,-0.34690050401391992,2.1911457697314551,0.8288363101305537,0.59265313723690505,0.96871395833534057,0.04982904313210712,-0.28666263338631753,-1.1086312776695961,0.01609736435183445,0.1262663483312558,-0.18132444753551671,0.37254962290034355,1.7683949516840205,-1.0307578404189486,0.12263744237536085,-0.33977895015216569,-1.3523508034960692,-0.33512920236405253,-1.1511857114030259,0.36793270119767735,1.5235360093660082,1.5269810315339094,-1.4743065539848423,-0.12156316670911275,-0.40347601155485213,0.32780502877905876,-0.054810306738045801,-0.75324401832734922,-0.0097535601445472696,-0.11583821465972108,-0.22656165760122693,0.5059532845364032,-0.87672287594653797,0.8167136033646456,0.95629837913078741,-0.92499982875677911,-0.2951918781602757,-0.34193135970154009,-0.045602509365674268,-0.44890468385572074,2.4917265252828318,-0.52873692297762831,0.034804161076977966,1.5834565266412663,0.26871452992059541,0.018164724066853526,2.6365597751604115,1.0347492313639515,-0.26124502157264956,-0.078197164810277192,-0.35151223672993614,-0.8707398980444927,-0.13683491660159358,-1.6071021917217652,0.58885820945904388,0.69290356875117187,-0.10069022631022938,0.56280551710989368,-0.50912127638949189,0.44994410157052295,-0.34123729731272695,0.56350352596906683,-1.6576936818193131,-0.30878248148598925,-0.43670413611584818,-1.9896088563445651,0.12208164093321038,1.1766766323295057,-0.27068080595478283,-0.4536197980726252,-0.18610796078528319,0.6660145936808034,0.55810134870090078,0.41563985325217911,0.8402361460077038,0.80660270153067271,2.5729628606221873,-0.93583971565193824,0.47657829940221014,-0.77343830886464882,-0.13291628393617611,0.4115075405020529,-0.72924426714778723,0.15681979461209561,1.4191757571441899,1.6553816433570283,-0.011531683780527279,-0.71515811448839106,-0.68846777155712191,0.77504659557498334,-0.42375461133062181,-0.43584125790073197,-0.98276652259487163,-1.3618387106731555,0.27967736773901769,-2.3660214243131472,-0.44932684260369771,-0.85546387593421225,0.86262934330398777,-2.3814180414497743,0.063504350797470785,1.1092876903992481,-0.32894445323754307,0.2005776327656465,-0.12469695495835295,-0.53867294936780641,1.9975382052536415,0.87326198712275738,-1.2507040749321665,0.30763814372220849,-1.0395255744102241,-0.21715958812245184,-0.83435058821097352,1.5761013894353613,0.71088100759757356,0.44410734614580483,-0.94853878224176824,0.6588514369362829,-1.5577732392928894,0.46144553726677368,-1.7058855184799298,-1.7731006187850087,-0.98711164794532114,-0.52586884500063391,-0.15408518355726453,-1.2630487207255308,-0.78139833337534947,-1.0405664628180342,-1.5644430216667569,2.874074935814551,-1.0617588622950038,-0.3894839955032573,-0.079793650423716195,0.36483374220359382,-1.1124273912701987,0.12058632740667186,-0.14500239141370203,-0.7985516774027358,1.231353264604758,0.91572218135530004,0.27400112971364743,-0.91540377824219799,-2.2535034913015273,0.84484455311293782,0.42907474675534191,-1.4084352358797094,-0.57317377759302957,0.75400045122969328,0.91450425304530292,1.0579872763998601,-1.3565742287096831,-0.99608871758756279,-2.0218027076681411,1.7995173249548828,0.30656424155043244,0.50998457100919103,0.49298818633281044,-0.16781587765994121,0.78372199625563854,0.37663528452333644,-2.4508132382767349,-0.075320554212437801,-0.96174319550519138,0.93898433899355049,-0.47126314405659803,1.3419254462093426,1.3873548392992221,-0.56456595187318204,0.66090384447404749,-0.23437182231432732,-1.5968796816308537,-1.805906771218641,-2.3576730595851521,-1.2151882690567735,0.0083718883334196314,1.2610037630119799,0.39428708350131375,-1.0310352352040968,-1.0963024305478781,0.91590648325590107,-0.53674484446593751,0.53846778283642172,-0.71857309213478371,-0.19872471354091792,-0.36440474327192596,0.63271666155966821,-0.056304333928258184,0.016101340899385145,-0.91568437984380435,0.84620982037448611,-0.54693741938409046,-0.73609527255692042,0.20961314414116827,1.1478026023027905,0.11282465890797991,-0.65451733599549877,-0.11009611293521122,-1.1088825380033307,1.5632379592150887,-0.01446342937932483,0.29773550920290848,-0.37038136996710752,1.1547730467400603,-0.74491572445076093,-0.98003056992869719,0.38891297248144924,-0.37522766818436698,1.1109725136208892,-0.34820712061665782,0.75810626640016743,1.3607400011200954,-0.70955344723006553,0.94022424215606759,0.68845007528525992,-1.2357920915500993,0.84601215322999679,0.68548918403858727,0.94330121418165147,-0.23983686572961302,-1.0598916420512001,2.1028905064562848,0.59337964087110473,-0.31880191914999328,0.55739500347456217,-1.3666687652369514,0.40939080312729487,1.1532347547014772,0.37496833067723012,-0.95684855953990933,-0.75794304277043378,-0.21160751366478292,-0.096103743880220791,-0.84917314811763789,-0.45290827501727726,-1.8769957766509466,-0.059689348444636151,1.3238151701295355,1.2839217891700594,1.5148304731400086,-0.43012177263270679,0.53206334973880876,0.68288445934023734,-2.0820241344215424,-0.035782968609632031,3.1172266829801969,1.187518132948044,-1.8488833838553822,-0.50355668936757536,-0.41303540637612202,2.3841930484655443,0.55099927202616816,1.0526260061132326,-1.1303375677895071,0.90909504070127478,-0.76666555912429613,0.33297979128379662,-1.439014286212001,-0.61266810230125957,1.4997738291717362,-0.088169189311980825,0.46144466743577328,-0.93079103394036078,-0.95158501292408726,-0.17807236712685792,-0.49025086216091535,1.0869843855522929,-0.43746667660221333,0.16718618897313928,0.92539801899534302,-1.4428687633157204,0.86189063740097482,0.25700652418118336,-0.41390936332895972,0.5828136318248569,-1.2900143349211988,1.9887451683749033,-0.14119944348879068,0.96989292053521592,-0.66928067816218684,-0.47378585563187819,-0.10124790531298618,-0.99429354295584293,0.77632577986215079,0.96339036271956713,0.0582267819242938,-0.39131572283226573,-0.89631447981431944,-0.39293510706418289,-1.1750607921314145,0.30798939348653698,0.42233232605742604,0.77997605365012546,-0.55627408108555154,0.81133076947215044,0.52881709195924353,-0.22833328338061121,-1.2711144757922053,-1.0543324292280261,0.85745535507363457,1.5488424344067089,0.88535434830361803,0.39367871271819427,1.4339535154797296,2.1057846956185395,0.13285514485601307,0.16890481859605722,0.32973806295474739,1.0635523356923069,0.18339300332917724,-1.1431304989400897,-0.073356036360773438,0.98605134469786337,-1.4766380606331584,-1.244337935459092,0.11527686586650536,-0.31470640766268954,0.1707105405218938,-0.53829931724840674,0.56346796992239889,0.025772497161626651,-0.51769147483986266,-0.44270927180550484,-0.6178120216396632,-0.66135166012333202,-1.1896121303525333,-1.1530560751108632,0.31696587783650443,-1.5080617101192981,-1.1663448967655616,-0.0024132660419024462,-0.18357453412828725,1.1736048874195493,0.33802951927346198,1.0146854526807385,1.3478124924370236,-1.8856440421588319,0.60245698772200107,1.7681811984147204,-2.2643161980861035,-1.0871603607976128,0.22116738706902278,0.42582773294976001,-0.55818585912247887,0.067333918016960967,-0.7329123192232706,1.0273105227069472,-0.49095652342121776,-1.4129992597471424,1.4972773145930904,-0.31263788192175196,-0.90751974087405085,2.8367400912783332,-1.8649705581221883,0.13754145688521918,2.171395105420634,-0.20840908114341228,-0.74466051455940074,1.2152802082685725,-0.46609536245594974,0.045610842992531729,-0.91540789100586861,0.46541058485111531,0.36926437025818981,1.5320455739372836,1.0841504377871338,-1.6687871977088267,-0.067584714281862482,1.8976220126579051,-1.8415419090837399,-0.13311384496866049,0.47461870774634768,0.47761081989244797,-1.333682523739804,-2.2268637763223627,-0.60281823833033377,0.11801831693171365,-1.1858094278567739,0.25176418928603095,-0.29972525522801541,1.1873802013832317,-0.35850613244766066,-0.75395162915418323,0.78995872974652503,-0.8021601431375035,-1.5253596310866506,1.7425960050494191,1.1124921697411809,1.2261740777173282,1.0308551080393136,0.34845945685239949,0.9581895373983248,0.71785336229243535,0.96602680349224301,0.84867703163445252,1.0949082460970669,0.91658432415362945,0.50605520403442206,-0.60222613245278955,1.0759178657983468,-1.2631402902431257,-2.4894540207014009,-1.6149432072032508,-1.4529924949165964,-1.3897211783567807,0.35337599801217473,-0.058741074281607172,0.42612737938502959,-0.49580792814161212,0.27476375654758739,1.1159812078431637,-0.1627968877598252,1.4383363063232186,-0.38588238083524268,0.13672857118155651,0.70210403296914059,0.031004726597733678,-0.40236959503828118,1.2401680676983791,0.17813162550998449,-1.2764589657050105,1.0338680962336133,-0.77101758908966,0.63083668440465079,-0.28480183675244902,-0.1875715040120231,1.2052254590216123,-0.84102621012198686,-1.3553199862754244,0.15694969061026007,-1.4473050978956501,0.0109629369239939,-0.24502450816001842,-1.1475928783586467,-1.9704596414881244,0.30173549071494099,-0.24163510127594293,1.1195474919218467,-1.0762718756010892,1.9165854318738724,1.0490306474526636,-0.031275822355480494,1.0912682274060124,-0.27989036311766641,0.14543127383585452,-0.30068441103374177,-2.3030157780789939,1.5296857135727742,0.45442224875320164,-0.049054526270810472,-0.50822776456528629,-0.86578732648098466,1.4901991359418461,0.77908200870554112,0.048436684932717446,-0.62249474750276002,-1.0488233889462384,0.43368888839512915,0.016636906133674845,1.5652737766721545,-0.36584950189596771,0.22496095882866041,-0.24440902704777778,1.6793573943456623,-0.27186415083827148,-0.67196687456275539,1.2050760450601594,0.44508823234145134,1.0680332086865805,-0.095952624513552853,0.90363264236799534,-0.89235954260836059,0.89491164669001977,-0.51744788048259049,-2.2623691005132818,-0.023724498497242747,-0.20859470813741424,-0.9889370591920581,-1.154128695425763,0.10546734091926899,-0.54356485896251339,-0.60933358016232309,-0.61480040417767434,0.21554631439913291,-1.8180080283203901,-0.25794478282772221,1.5716363905606887,-1.2726336504474085,1.2008028140487521,-0.32289905297014848,0.77904589301286042,-0.94713406427038094,2.6102271499441803,-0.42096656646109992,1.6021929021224715,-0.34095551551370346,0.30449182138853936,0.81612974707467156,0.75816431599240586,-2.0755523766849011,-0.7532373218453321,-0.4415658103280774,0.84760933346290379,-0.21531683706469498,1.5902278651520119,-0.27543463517664551,0.31891999751524824,-0.15366461403745707,0.21170929517716836,1.9584549774598834,0.31477130638373352,0.59069652070423295,-2.0423777472078872,0.42476098284387659,-0.53951004592522056,-0.3631772180226473,1.1455575335738766,-0.10377637232280121,-0.56218341808191352,0.46012159125805657,-1.035249479463652,-0.45994207894493461,0.080852574554423393,1.0921666947992676,0.85481494060221419,-1.0154764156980318,-0.64142433690818101,-0.069123359392665909,0.63869808332326294,-0.62210236631554472,-0.37102283776853101,-1.5064559829364839,-1.4888679752443725,0.1901040480568072,-0.94357813227832232,-0.80214456380754073,-0.68849168164669305,0.39246004026289794,0.44213142419929763,-1.0114697450019603,0.28067092223769752,0.70679127109179407,1.7480768282487698,-0.39100004237840635,-0.5225057413415346,0.15348382732989863,-0.12380383665281605,1.2552921206126346,0.24065838487122118,0.73090511316720774,-0.42358404643937375,-0.24816611122675239,0.85564648540525201,-0.63716201075319245,1.1023709837650246,-0.33547254026343692,0.88616067137596621,-0.24431694786091801,-0.23164138885886354,0.55261908108261681,0.27446329861409108,-0.69018011246463551,0.40969248443782141,-0.65268573736065161,0.32415515733033767,-0.47195573006607977,-0.95368533130450828,0.51706741404134726,-1.1003290571376598,0.74717794224104817,0.019058068880111648,0.61474811195258861,-0.031599218243939742,0.78746873210602708,-0.70027944173482282,-0.64736973805609532,-0.84337635445434211,0.44627219055867517,-0.49831796401793643,1.3323257551533947,0.02733065579934001,-1.0479209491178356,1.3495441820213556,0.22834032976325794,-0.42003174027732765,0.52712401724618141,-1.2512676921260355,0.16342640496785199,1.8047562169571332,-1.0568908157943515,0.43677404982107065,-0.094245034771073377,-0.12457880573056825,-0.60211938003380361,0.20759388693510122,0.63299022131641136,-0.20847181320227934,-1.4524032274141676,1.2115350781906518,-0.39903395894344201,0.12213736384868237,0.1302791646525866,0.77483270157203177,0.045071847998065941,-1.4692858220209621,1.2488361067205822,0.92446262419789038,2.1360247373298864,-0.025602701352657402,-0.044902744021186498,-0.53381382845900416,0.81407827772783947,-0.2815592064978063,0.90583119685039926,-0.726204626358949,-0.82428907540919183,-0.32194085893373386,-0.23184825556031016,-2.0889974753496627,-1.1584295729203349,-0.60926147345814885,-0.16036639385197091,-0.60033390372663842,0.66997901437773844,0.54485816442538126,-0.29030459112936186,0.78658783899402496,1.1307132795279089,-0.84630241669323136,0.89266023609027945,-0.21607285741228432,-1.0069168171984637,-1.0013497086311405,0.59826782856593475,-0.040318435529486954,1.621782417079553,1.2807472727089655,-0.26308601016369665,-1.3692772413041796,1.1460804168261063,0.31846910265642348,0.49561607582684797,0.50088693823532549,-1.345113081923851,-0.63050750043338177,-1.0950583810568506,1.3938378482036426,0.16809981556339257,1.7289916187863363,-0.38060743244643336,0.32850709864442762,0.54345964734503283,-1.5694946978082123,0.46262812661254316,-0.33457025501591781,-1.7045184866994623,0.25507563739381661,1.4790485709091947,0.3445629134927099,0.04470797881373563,0.11275961276753288,-0.94613640314913816,-1.9953136923729582,-0.70504598898338666,0.91082873287278354,0.9918196287970783,0.63676377195020362,0.61556869101049838,1.1758076491239113,-2.1038370990150139,1.074724893106096,-0.13523159101385593,1.0057801697584212,-0.69805832835638892,0.22827210103278006,-0.21268965428331146,0.35514035144533573,0.77925429376264532,-0.27866714960731143,-1.1339387746252731,-0.50313803440772908,0.035200466402576791,-0.13468268069812622,-0.31764120779696381,1.6410104714604616,2.3347838881407115,0.024442118518770539,-1.347635979462565,-1.1567869786152758,-2.2248079715893909,1.1831071955259209,0.77255025725303583,-1.8375056020340168,2.2224439263890332,-0.54033548102057694,0.41617949021991957,-0.31761882407949493,0.43777795449682488,-1.1402718509466305,0.88540981138991137,1.0106889319337455,2.3343096199586757,-1.7592227920164885,-1.0064489159305272,-0.87994056283930733,0.15926612753700664,-0.19427589677501414,1.0874164531881427,0.54039283003999172,-0.19578276148518262,-0.72460209604467551,0.58707231131871085,0.84791853895693658,0.62446073571782912,-0.016723084299372297,0.61536284284232623,-1.1420679700625858,1.2201913560997641,-0.60624860694554994,0.29332656707703042,-1.7079378655622326,-1.4411904901906838,0.56011702971485922,-0.846425265556077,-0.58805773165686936,1.4171800510015546,0.29076818465357973,-0.53521816467567396,-0.40290648857735828,1.7968569143087982,-1.0769884854485421,0.60705115948752864,-0.27549205212359518,-1.0791344806576175,0.18415493368826671,-0.44573484537703356,1.4492612303833337,-1.032586321609916,1.4772875857597598,-0.4767368616964261,-0.28769527989722199,-0.25738070973791988,0.32245924905115114,1.7418875644349909,1.7903520856486825,-0.9180509432674977,-0.58633778033582584,-2.013147452539874,-0.069469316425699423,-0.024425797121241606,-1.3923740425622402,-2.5146829339617356,0.71366291651057023,-0.023071070858296263,-0.22510961964097989,0.36521017735087019,1.2700189576389997,-0.32146009807056702,0.40516024203037709,-0.27375759716293185,0.4006788422490547,0.0013887813454000774,-0.51258678985622674,0.55381834984484546,-1.3006954374419382,-0.57610989341672336,0.50866321037317852,-0.48747482351558435,0.72379960791836639,-0.67258175169575807,1.1167114495176935,0.04506258605124551,0.51302371900429933,1.2161759766799787,-0.77642589322919431,-0.30182979800934984,1.4758127870951316,-0.67511762916556073,1.1350233025239933,-1.7978332155786032,-0.57545146015798199,0.028077054553782267,-0.37072441253954824,-1.2615560994961037,-1.1341395086249026,0.91826868730897304,0.49696600492637932,-0.33926463106451793,-0.322692199767319,0.39209520313506968,-1.4712886881405909,-1.5083346572449745,0.70633788583200219,-0.0046986803395804725,1.2042814812169307,-0.13475460830173441,-1.193326634791297,0.36350602057992704,2.1909121405607497,0.386975655659825,2.0007364414200035,-0.57925482622391589,1.1496426973924232,1.0157866374496063,1.4073851284771504,-0.22726418726760855,-0.67224015169640294,1.5284041481039357,0.16256450623044888,-0.39742927114243687,0.26242821448269321,2.3657257976560455,-0.37274005146973138,1.6208436568733808,0.99148007927358395,1.2157771847678451,-1.3393585848123049,-0.19076001903547585,0.25038298753671695,-0.22234230296626475,-0.34207027114856259,0.74356140704594564,-0.78090061384958864,-1.2801382823189571,0.94136765164749081,1.0558903055329187,1.1836712409945318,0.88989861761976496,-1.6984985619341297,0.66695878140022724,-0.06940553756730565,1.0163060301051143,-1.2666220206617032,1.4491351408599304,-0.25317167205852265,-0.39792733127813529,-0.6324104226401952,-0.10327706373132207,1.0210459550028219,0.20671844992552052,1.6815536300524052,-0.48809124215303779,-0.21580425208068718,-0.47901303905224246,-0.33506544396272064,0.79258075344800039,0.34902703856568595,0.17193106402613592,1.2052310574182679,-2.8722613335102438,-0.083177961504379019,-1.6471306527141847,0.47418485722205417,-0.86787538996893732,-1.0233844391201126,-0.67644574455525119,-0.86245191871884375,-0.23542763913962197,-0.93272723230200383,-0.069943363754650018,0.37775342555083219,2.4798047870086921,0.42167256831377042,-0.98559841115432045,-0.57211817832123124,0.98080877801951227,0.012018296766907919,-0.52282584690762735,-1.2986681512915932,-1.5734270531574861,-0.97785692087909259,0.84963457121435038,-1.1072857105190965,-0.66715517607347119,-0.90574074647235903,-1.2326409330124675,-1.1779659721974556,1.4156424518894921,-0.27865157146567332,1.3227253382113795,-0.00043692943222612394,-0.22426462545166703,-0.91578177164380759,-0.90292822971788289,0.33368744608676248,-0.29248995326599236,-0.91145938021332884,-0.37229473448973438,-0.074323998829487717,1.8450527052615497,-0.91254915359056943,-1.3168743100488067,-2.2202787212640986,-1.8108432374262196,0.43038732375184036,-0.28387172225137453,0.7349151665281155,-0.33057264610840964,-0.5350551202825381,-0.75327220528284211,-1.3555629894450847,1.2842366443395481,-1.7075121206428958,-0.44178243843820547,-0.91714681261576647,-2.6231552357854322,-0.86915780876501914,-0.061093782358552909,-0.54034304436636615,-1.6964083786247139,0.90134657099277138,0.16635818423270191,-2.1684693605729062,1.6648677066603184,2.5147821717335845,0.38064697536307041,0.23732368689943739,0.43307815286728957,-1.7400950310119607,-0.12141320346099362,1.832234973203188,0.97468624883500732,2.2399996821275159,-0.24955436045847718,-0.10140242353672682,-1.2127767743243147,-1.0156459321904627,-1.227127842851288,-1.381003162533162,-1.342815345937318,0.59398522700746592,0.53040537688699696,0.66391708126984783,1.4167411386086064,1.335082264796025,0.62915102530730493,-1.7133912399392721,-1.3257286397429435,0.54795111836175081,0.38375929965322975,-1.3342297137888273,-1.9181767052944183,1.0217520038859593,-0.12791785017815313,1.2898815715176204,0.11982787619519182,-0.77538199391065121,-1.04949685486625,1.2519535033192768,-1.4970704382819535,-0.78945492890455715,-1.8428435712509579,0.42626598816194894,-0.66031013968986441,-0.19331837694580645,0.54205202581834322,1.3231508809536336,0.89468116807484888,-0.31705085031821123,0.94901996774004937,0.078459917657609665,0.92294681416296176,0.76143973384932762,-1.4711599030928029,-0.39902844455778208,2.1041843797662003,0.49160281432186509,-0.36638276924763252,-0.21122657648095647,-0.26721083254681693,-0.28524345103046739,1.4784874904090768,1.07866595291638,-0.55615687392252056,0.46913129392247421,-0.16611889137372607,-0.61724451286984783,-0.18070878586861197,-1.0822979354741415,-0.41293715741943932,1.0379338831467502,-1.3678737433701549,-1.2253138606823564,1.0695436970547538,0.46930623285632833,-0.59893807538710986,1.2467914215306695,-0.23102224910020311,0.028217512480550051,0.97712376910113963,0.4926795994197587,0.073042730392048907,1.2186774229314368,-1.1531195266285832,-1.3026887910330758,-0.079285139318617803,0.89012448416215384,-0.47481421668877188,0.20204682762330076,0.9973460786836692,1.1563791044531793,-1.3442781674550703,0.22311283710261448,-0.6097715918438833,0.55320406612787887,-0.14736865095164617,-0.93694758156647784,-0.016228327356695545,0.24915046165193888,0.85881527425168891,-0.72486892224138477,1.7001793650144772,-3.120385814358118,0.046558274560340868,-0.55651187666683022,-0.63226666718908431,-0.91081361260765126,-0.1021227681260746,1.6718123105951672,-0.47367801198410048,1.2852560596182452,0.3467735284390131,0.18000445063261455,1.0636843917285286,1.4450841253191322,-0.33034666160823373,-0.4317531776348541,0.42694028351179064,-0.63277650837580413,-0.19975687976105172,0.55135577856415496,-2.7000713702089767,0.22298924056649619,-1.0745486084340199,0.25465060913131521,-1.3552631316619126,1.0291172890426432,-0.84811849287987495,-0.39340943204974571,-0.0077131504955409158,-0.12859813088554739,-0.46033425387785881,0.41808006090608096,-1.0890710373868309,0.12278693573735634,-0.89733368620006415,0.69553632790452768,0.00075258522049874909,-0.91790098725430336,1.0250853171337146,-1.3430233076524438,-1.2852309762613379,1.1623120605100297,-1.1556940023654201,0.4076291801179398,1.6578965826383905,0.062065273565340001,-0.4749978578496315,1.7316357573598204,1.1006395842124164,-1.203494317256979,-1.0592677133807626,0.26061814956545765,-1.0191158413138124,1.0298277942052612,0.89775883162035341,1.6185918327427076,-0.62342280711709963,0.70885927465286014,0.23452993173147293,-0.30510795705296762,2.5817899632144128,1.3762218745813979,0.27754474374383653,0.95447095355890088,-0.78518352982399642,0.97554075417731467,0.53262150668908692,0.83426564288359495,-0.29711099811050745,0.13982419447163036,0.024758521485452788,0.46217270886787737,1.5173731107625354,-0.26591648494013537,-1.346995479666687,-1.2558984044878081,-1.2427059220726795,-0.60096119750025689,0.32722399034029553,1.0636773636668988,-1.3158675446453421,-0.51188602711766873,1.2695078761674352,-0.020567292789928009,-0.73222935720851701,-0.26981314275429863,-0.90930476259788517,0.8347756884580857,-1.2405024274472618,1.1605158213656017,0.16115000490926584,-1.6576959145908541,1.958904572171668,-0.58845654976547412,0.50485674885692522,0.76919598205491457,1.8261883916229928,-2.2130090571558467,-0.31793937612718698,0.11998711609962269,0.83111591180096056,-0.028976112194266629,0.010062605446374318,-1.3632002658758646,0.40448311267021958,0.81477720239788765,-0.79018760566536506,0.91844662537560384,-0.75828056147743661,-1.3609987275276232,-0.97168789094707619,0.36831516064801834,0.96740484632392298,-0.31702670899747187,-0.028536907691682968,-2.2741363696642591,-0.17892362889056085,-0.63549623433126634,-0.32952929262680253,-1.4422257151741713,-0.080261923827950735,-0.6042917729438787,1.3176328380039661,1.0653897517902959,1.1401146367097033,-0.13518438005761041,-0.21880925937998719,-1.7699191629846673,0.30186085207442792,1.9256022230605734,0.12588257155501725,-0.71510055419986163,1.7471346551069384,1.6326405460321303,0.29019738791282745,0.12134723921624993,0.30912442935576684,1.2516435644932347,-1.3686501920523966,1.4081854085629992,1.0154798649169257,0.44894030260744866,0.46803438479783643,0.3487768846589116,0.4420295327154028,-0.94997300595013068,-0.53519722867584407,-2.8971924606830632,2.176071749608679,-0.11971877545849199,0.4173949313845895,-0.8899333503555964,-0.32010721302120099,-0.78486946669427782,-0.87926042159641171,2.3755623414732567,0.053737080612672995,-1.0602286066510842,0.52203193098868528,0.15281331007327814,-0.052686695396439671,-0.45375217351569658,0.11373600927467584,-1.0240193307282839,1.5374058344920609,1.1658045620353203,0.67364229756333704,1.1781666860077764,0.66883593899719607,1.3570092232055453,0.23141020175443788,0.87625507923759072,-0.92416025270430369,-0.50743945677008373,-0.023411021759516884,-0.2392139267495674,1.2844397810858912,1.2522344203405951,0.57122277398955745,-2.7654567474578342,-0.46236432626307927,-0.41456457143317293,0.93831276185976475,-1.216162568553681,-0.30405716940334387,1.1113529993472748,2.0018216352203559,0.74360061733446303,-0.026430116146763834,-0.21668636153572771,1.0858246150490132,0.11753927342597748,2.1276300842120413,0.77621098977274461,0.29994666792820118,1.2876940022677323,-0.74160009217069034,-1.4192687493993257,-0.83392554120200513,-0.45704556210354852,-2.0513313740322046,1.216191124389578,-1.8915373729162877,0.3020974167135233,1.1552473726914922,-0.38662368506002143,-1.7274751718474386,-0.60569545435003136,-1.2568023613963486,-0.33171631342907071,0.46569128212684691,0.94255541455491931,-0.18202905123450855,-1.0649209758091853,-1.355912701096528,1.9342342837620674,0.66762974528942765,0.74277291463104633,-1.3666269581318506,-0.51350127377193633,-0.51760770143810542,-1.4982853696931879,0.31800440162047161,-0.099594649391986478,0.59275278280758681,-0.19985138962495391,0.58479630946844652,-1.8973133288676463,0.75409690015114617,0.65431072857284123,1.7973100567565938,0.11129960558574323,-1.1685354638579635,0.96035586764872649,0.62703189605187071,-0.95578419111912416,0.017464530269612328,-0.21615756301130465,1.1157078088508301,0.9729008016322841,1.4534420742721808,-0.047885573820365721,-0.8105611830495969,-2.0014514447947458,-0.41094509837047311,-0.43865120093467752,0.21793534452993887,0.77478941863003359,-0.52686492228949255,-2.5508435611079627,-1.008744530013884,1.3689022656572332,-1.0431444127906531,-0.51475676258742842,0.77310155421333993,0.31687300614014469,0.20514671649697502,-0.99052391455664079,-1.3341138706824778,0.68861431882167767,0.024525019193590417,0.74789191851492343,0.12114683733580918,0.47233701645762011,-0.7177643395625446,-0.84091978660390776,0.75207521026429769,-2.6214445389022707,-1.206215769963821,-1.3634032540377279,-0.071454245341213127,1.907860837541008,-1.4030017113547912,1.2000890231023273,0.80627618939751011,-0.84190234270160313,-1.0942837674525565,-2.3860055972529994,-0.88511842059746837,0.41046953367453681,1.1459549592875458,-1.0133152211329493,-0.45635466391353136,0.73983777642935367,-0.12365238189276931,0.012373211446082909,-0.75586211388533553,-0.18189141283890559,-0.037963565536994134,2.5472376989988321,-1.3390223263040644,-1.1845984439774138,-1.2547953115439148,-0.065780986658896631,-1.0408538990117135,-1.2640826006284813,-0.17865108798097581,0.90547305934882893,0.42822557870870953,-0.58923861774414132,1.4145323709254967,-0.3084939891089119,0.0077959105897968404,0.24415019118349901,0.12827568585506802,-0.18025372555095923,-0.33000612202156498,-0.1928347132697682,-1.1824425191938739,0.29296355649373368,-0.69364952893894705,-1.4389482842964099,0.27469201501741919,-1.4310618872422591,1.4099038565051323,-0.082682530800915074,-0.10975624162000844,0.53879000965999302,1.7682769924862816,-0.94712329059029698,0.067830214849247714,-0.40855551143083063,-0.034389414227640434,-0.32849492033955974,-0.35030476735289473,-0.23747382739692116,-0.88024064780252487,1.067724617582487,1.2698415141031845,0.87029350661711236,1.5452521704884963,-0.53739491021092989,0.88111965559294925,-0.36465236699729259,-1.760994154960531,0.087216024348223675,1.2552081606363621,1.6295718550636089,2.1103700342402143,-0.54377783238227362,-0.98854713939423855,1.4207460965583181,-0.2959228259754858,-1.0973795059947395,0.22745788707090575,-1.0406444552647889,0.57478675749624497,-0.41125661543729408,-0.64269342123673534,-1.6723807646281683,1.5961554657801438,-0.70311826851995174,0.7892762457276068,0.89774223500765482,-1.1220557633208006,-0.026035443325393225,0.11111639995825222,-2.2218284675696713,0.44760547293526864,-1.78384773127701,-1.2487614783879264,-1.0529769236436015,2.7259034765411894,1.0186392319029989,-1.096368968214152,0.92441989636562416,0.25502225901823516,-1.2514896240493818,1.12451481343837,-0.86219600546290687,0.36485935036180422,1.8986427301356499,-0.31796512581292524,-1.2652644723846056,0.41743577811471505,-1.2319083967618305,-0.040206745320386213,1.2937122937037191,2.2999671151292924,1.7922374644101218,2.0025887366134243,0.59653586366501776,0.22037731457904611,0.98449750424828042,1.5584192754398305,0.27306570603563612,-0.99126006791327148,-0.37480842436201051,-0.35993716143029447,-0.87499903011593694,-1.1119212631839137,-1.3922202454296373,-0.44641591573244366,1.0385652734643351,-0.49131763802036355,-1.09573952726823,1.496104555307233,-0.56386265865682617,2.352309451713249,1.5147980335871272,0.62762135383505513,-0.11317968759651412,0.28601403327323505,-1.0398844552087325,-0.26093727533651534,1.2070158022261315,-0.4836174868945991,2.1573174777031321,-0.90045675898125743,-0.72359775098389856,-0.059345130921665129,0.99259285006959397,-0.59400337006115211,-1.0058078645006792,-1.6900483554011556,-0.8551038205727608,-0.63088122507662925,-0.98366101167125941,-0.66091518676050931,-1.9238231643782784,-0.82859908413158068,0.60256715150696183,-1.0691029036337836,-0.29025678958107554,-0.50845908222266822,-0.19260494374592291,2.1308531944903426,-0.91883097684967674,0.36282756158364443,1.3646123694834336,1.1042582755753434,0.29904433066284247,-0.23851707670619032,-0.36676158741847831,-3.0438910446015446,0.26212418265467907,0.44546006522588444,-0.99181548084328475,0.18423788968325222,-1.343558713870264,0.53502632546262663,0.49910066782276696,-2.3044540004332412,0.70983346706847361,-0.17428890071597497,-1.7627206604387693,0.5109886882804423,-2.1169695795271419,0.67772710661103863,1.5850013231729101,0.61416925018382706,0.33635444587983904,0.062815647012580703,-0.58113670906787285,0.3002900638954325,1.259510258215931,2.1278765677891274,0.27794945576794428,1.6030133096539321,0.42401580597155297,0.46262164468940475,0.70737390250446297,0.27510936574540024,-0.080294791740461516,-0.63783087449425613,-0.57385768867568987,1.0793092292888422,0.72285623138320365,1.8585324547216833,1.8842532394161322,-2.5172425070526581,-0.58866599224610472,-1.8025289656148997,-0.35154522946463806,-1.1234765361917145,-1.6324624185360117,0.89342700472032133,1.4500062796220545,1.5679860625650213,-1.6681126816282807,0.21290523293952618,-0.49730147445691841,1.8638782204577657,2.5058666339942328,-0.18236942664363429,0.043999885151831335,1.1582388245249042,-0.74277643741999411,0.73213704680659097,-1.2320330843490419,-1.1044689503640399,-0.59564016189410662,1.8403183676627501,-0.24538128120714309,0.3074038999965053,-0.33785464144613059,-1.2684147966987356,0.37536632527716657,1.0414878762184392,0.10912619350308085,0.6671142012783714,-0.057544994571807499,-0.46362177422564799,-1.1091406763289726,0.106138689616136,0.20494473138475483,2.2463151712385785,-0.98283422700403933,-0.28313107788116237,0.03969275501373426,0.66730289255889752,-0.33786264778583408,-0.15471595651909653,-0.12106063373145977,0.21930544331752266,-0.36886509823186669,-0.050249352311361843,0.56597582515912481,-0.92742377090751382,0.6154715606372223,0.1408248761428359,-0.17809157564498415,-0.062111409012881327,1.3512691366064302,0.76198453319669424,-0.31207401000722801,-3.7057429694261876,-1.7102313379576237,1.2933291382680556,0.89069463556423445,-0.0038337283759699212,-1.1897018244247137,0.15773028330837821,-1.1875474652962941,-1.6707106415386062,0.043179236252770911,0.021333912213325465,0.35157791770862512,-0.66478833366588597,-0.24685726474132433,-1.3315519506453675,0.23129556309990282,1.8771002335258546,-1.0141323459858331,-0.1547323175397948,-1.8478337104447111,1.7102181930160745,-0.58259099695984451,1.1769116675662832,-0.78449301672426586,0.60266800941425824,-0.70967329503140586,0.094494758989818878,1.8164001985857667,-1.7459551782564382,-0.044807017686006083,-0.85206533812354701,0.040998290611184866,-1.2552443666363446,-0.38678700017121898,-2.3919471822654135,-1.7641561011769771,0.80972697313424602,0.6906122746326937,0.16698547070471201,-1.2018001790180721,1.4182145807637916,-1.258285430757309,0.38274552109371179,-0.50407885445082923,-2.8414288122853457,0.29102579632256736,-0.003526580593636597,0.96413645761013989,1.6493465521845398,0.084800226216970684,1.7405492483631877,-1.2176595038820952,1.7682291189132147,-2.3541606050357711,-0.91331224430249203,-0.74064776675116784,-2.5523696783100731,0.18509973780873556,1.4200760539901325,0.10373935075403372,0.7432066775215892,-0.89781601440815162,0.071687292543030565,-0.26316604903269863,-0.19829526372584755,0.68262810151991349,-0.76955208631891625,1.8509821656115206,-0.1328541504814755,0.18639743576012224,0.92787612277221021,1.4408980269153744,-1.1686045802778553,0.22858725572665337,0.47854742985657478,-0.26976380515640541,1.038616727489281,0.17912638487153704,1.5360312780034313,0.44951645572096643,0.41859014740767753,0.67404912510766368,1.8695108582109492,-0.5490615445365169,0.18516313053024802,-0.95628478881438084,0.24075223260602033,-1.3667511659195855,0.82422050794563129,-0.012934505118132038,1.1346225175283142,0.07805679578780228,-0.8796550634153647,-0.25791036362646436,-1.1306167251136068,-0.12875606595011516,0.63707089266196204,-0.0039999519614148868,-1.2912281361133642,1.4786442141590184,-0.13367664147803332,-0.1289987571679822,-0.29503777900957712,1.290782173830846,0.216057662348841,-1.260459908829429,-1.0499485840097103,1.5958324389939478,0.9333333787049185,-1.051934402783665,-0.36183076709646567,-0.25258134786959274,-1.3750190189721894,-0.12680620977706683,0.96785637480812292,-1.7046691754859713,0.90770856816702883,-0.80649243619662103,1.1480096382260083,0.87003409271664789,-0.14191011479772031,0.76044279065360598,-0.59689294929844339,1.0047277600215356,-2.6358656374889535,0.34703091708852091,1.0059001818881621,-1.2063866859518215,-0.42016504483181794,2.0471936763462883,-0.80129830289474824,0.068196866255979607,0.95598999203335921,0.3841012859894477,-1.631590730120567,0.53165620019495119,0.24989624479978453,0.76740896099787481,0.61048016511454239,2.7780867351174372,-1.8688819479706176,-0.70900488506809944,-0.23136056833312091,-0.75442831501562913,1.5664888177499785,-1.8179514398515058,1.7110048795393364,1.3596711042298455,0.53734710243243877,0.66430763587115671,-0.54843278647807037,0.19980676913433967,0.26937718922947029,-0.60481007684967247,-0.15290535530735211,-1.1600651599886678,-1.6442612418752947,3.5538672599967192,-0.010372486694590649,-0.050881836425983977,0.069506205109324717,1.1388759830098505,1.1511083915394489,-0.24638533591655659,0.10102024050845707,-0.49306216605252751,-0.39238676259001415,-1.3777827877942086,1.5203201624559515,-0.16913434152355636,0.063457956863191584,0.075364924196501759,-0.65527806271017808,0.50154786433634224,-0.33819343049454975,-0.94758666725841778,0.84333621008708193,0.81798073908601709,0.20444078013627118,-1.5106684142459332,0.068429699490105717,-1.4592636373207559,0.69337200952279743,-0.67510956201174865,-1.9251540600723673,-0.57729070900644697,1.6181818266418455,-0.96721980968699472,-0.11867114208300292,0.69269920968788345,0.22412333412009761,-0.14139545328241293,0.12309953473143025,-0.37804640443614246,0.22858024189543552,-0.40506829430448799,0.35012634945642623,-1.2276881709780583,-0.3902571636996493,-0.18440267705953198,-0.5439014547761436,-0.24223053187796953,-0.26968541731917905,0.2732167266580543,-0.12208334347704411,-0.91611554410802087,0.60794944150553587,-1.8255339143071903,0.93225975472647382,0.83640586492209712,-0.076184853633497376,-0.25517185405334147,-0.014042970712971453,0.865720942362601,-0.50271368643245262,-0.32229721607314171,1.4355032932913132,-0.44682925597075057,-0.36920348557927896,1.5588796795958086,0.79069893384417622,0.11084789198570612,-0.95359470331447771,1.5991491055545046,-0.47121830524736724,-1.8221436680476406,0.88286206405929113,-0.31931114641501873,-2.5601557648707898,-1.5543750366376106,0.22155695956356539,-0.50097847742605173,0.39649469191571146,0.028503129719021573,-0.65497933331327929,-0.22646091278102895,1.5191405297090064,-1.4648052077866125,-0.47764349160699449,1.1594893050974382,0.4974705372944711,-0.94479037031675261,0.64661148597079632,1.4837005402993135,0.72687648648496606,-0.91573710391138186,-0.035399490403921555,1.3275799943874984,1.0261072666253328,-0.033620739028530196,0.69022232643951653,0.7886331117605434,-0.74730716327269464,1.2777615025268876,0.70453063516215264,-0.47865986508911873,-0.88022952910337482,-0.20974272773294997,1.149747467499056,-0.6737784232073516,1.0485200266340249,0.01981625154365806,1.3654008656032814,-0.44269308270515439,-1.244746174398329,-0.10267189750478724,-0.305427774663521,-1.2849655088304537,1.5066190287209213,0.40616119637803777,0.27512187525760634,0.036559719524249933,-1.8554112108471499,0.10187930850590848,-0.3233790246447103,-1.0306571706923515,-1.7632796748825486,1.0189467003774821,0.058533085400451192,1.2742166621960325,-0.90019835479355514,-1.4590733337492403,0.9708997367457658,0.0064461102108610167,0.72245106413195948,0.56326875148564515,1.6983813935084342,-0.5696342883454073,0.16651893976933108,-1.0107644492386541,1.0973070246845307,-1.5380461015130238,-1.1227494928313506,-0.57477943862808401,0.72035729056923459,-0.46925252841661169,-0.63325492121541327,-0.84862038071475909,0.24019877991806701,-0.20937619687240194,-1.4617825817601964,0.15453700523258995,-1.4883096713188697,-0.34053125348199959,0.45967376803433763,-0.52699240058792562,-0.15189726525133265,0.79409962130385836,0.3395477644475236,0.63233742648654123,-0.28165928791940237,-0.68809676126397057,-1.4439901503069943,-0.31264733111609444,-0.37005348868645971,-1.3832259671906666,0.80478437420544569,1.1338092929365835,-0.42225496857486289,0.5186638538778644,-0.14387629995793988,-2.0274368397017848,0.68177172303318101,0.25898608119586869,-0.42033600497591989,0.19571019634878353,-1.1755645947493047,-0.48809018817358685,1.2744980228211513,-0.49631154989142456,0.37389502554605242,1.3301674530296523,-1.3477613932759016,-1.3560242365497805,0.088646595556499327,-2.1026217534721456,-0.5206692766913078,-0.19087310916017422,1.0609504309283246,0.043900947483447507,-0.86009591858418732,0.67905015294094762,0.61903941607395985,-1.50950668597548,-0.88858466840568395,-0.77881712174970052,0.43962006079897564,1.7707328492476593,-1.7805412876884263,-0.28553241320463163,1.5906550701402011,1.0081950304889855,1.033383075562621,1.0120503497676887,1.7245477340227251,0.17488877719270815,-1.1384460447734797,-0.43203382110259342,-0.72180968539630197,-0.6135934184416949,-0.42253751795526617,-0.01332395763493178,-1.648936297517396,-0.21235541016776538,-0.15155469444646347,-0.92721094581687791,0.24935773257874425,-1.7564103616724189,-1.1524145961518348,-1.2212139063815692,-0.94046242737280161,1.3123455027733415,-0.0012502852000838994,2.6702877724921548,0.36327538896587208,0.64661321158989515,-1.1778492893508752,-1.7787542642256884,0.6720163869391409,0.13225002587680829,-0.41353128163368796,0.98166272785495701,-0.49661205075105819,2.1775022617281232,1.0692257549579585,0.98568154945306519,-0.93655700158564292,0.6967238467231105,-1.4036894312129728,-0.4242414827603973,-0.56692693533119765,-1.356558048608042,-0.00014369216385782272,0.82216282601053847,-0.85838541561050774,0.46381800743152357,0.27193120072647897,-1.2896844766711679,-0.51042156136218542,0.30310920689272586,1.0704180744207212,1.3269867655011061,-0.44088093482581175,-0.14644983748969093,0.61589387273908414,0.99533694662420136,1.0137573388767611,1.2766788212071214,-0.73564753578093034,-2.6096164615473896,-2.3394419808284574,0.61668037715950685,0.63317486686776037,-0.11371989294208287,2.2401260238833078,0.77686238147406894,-1.2202907100374358,-0.19950904848556497,0.14158238985860702,-0.0770708122895227,-0.47961251128444626,-0.14076022793148893,0.94978606654275854,2.2909626459422254,0.49839382794856713,0.71934651074747535,-0.19304061119353202,2.5117400213751697,-1.5543447530746184,1.0500271781133645,-0.97625809576763412,1.6774517614664664,0.033864100842747935,0.21840531662816023,2.8083512159302528,1.2146209177488188,1.0710092052849289,-1.5289736707720558,-0.066950982419739374,0.047300360296151332,-2.1638676625858446,0.33631313371627863,1.1286455736126599,-0.82821002197865246,-0.37837252130103177,-0.35937460013943356,0.45400158485275549,1.0120721339464591,0.53243121800948001,1.5185580705423725,-2.0939648471217516,-2.383205844299026,-0.50278431890164255,0.43997074966118671,-2.2267386682114756,-2.0286416930270228,-0.20501593479939778,0.66958458687297606,0.99208168401856101,0.068075587479669283,-1.6526611943669323,2.4540759058363593,-0.26604582789692449,-0.70561050383584056,-1.1106694041963219,0.80698542588951239,-1.3017468411080337,0.68897683138800281,1.0698933119929535,0.76902616239162058,-0.63437226067290586,0.1511551521722401,1.2721655768297357,-2.2217008091741679,1.7296827935883168,-1.3640285583432692,1.1151209157153119,0.73818767589623802,-1.9680856322895257,-1.0935126737475362,0.011766193338714051,0.41125969216881186,-0.20335622900355871,1.8011136243509582,-0.5493179634860238,0.14881102562853271,1.6402914456556801,-1.0909548456264828,-0.49807276960430252,-0.081909114889485962,-0.15782437150970979,0.1389447793340319,-1.0276000733936757,1.9267624290201406,-1.2127459294211191,0.26151422372727762,0.9014337040235364,0.049076575878215213,-0.66308829854163565,-3.6885349957474447,0.78585157153334539,0.87946647146889112,1.2491655100830299,-1.0946949930561392,2.9546504436652801,1.0675737364998998,0.19561413316715118,-0.34095103393297277,0.66685210823149788,0.73081865738972107,-1.1629188387877656,-1.4768258060623989,0.49896715843583583,1.339203025596873,-0.10367285613521424,-0.29666507592441305,2.1837254573218816,0.44757246024318931,0.50165230139094508,-0.22291582598709034,-0.42363794188769738,1.3690928391740826,1.7448215432039276,-1.864517617968958,1.152389320914037,-0.80641856394000611,-0.21569082983574417,0.87179769633430126,0.59744061311835872,0.98470030189917657,0.27245150476829888,0.900630451359964,-0.33294580610616054,-0.6842449843639713,0.3222104052965008,-0.55791935891771527,0.17332018151528616,-1.0837586598972,-1.4283091331156241,0.15042688071687255,1.1961501022789456,-1.5400139689173404,-0.095670363061029134,0.67802410481683617,-1.486920018464253,-1.4116652753537542,-0.32553603563928063,1.7090742788559121,-0.30497972464097284,1.111376291458156,0.43031669578176013,-0.39262699156883984,0.74436187934286424,-1.2141834272543721,-0.93862428580386548,-0.37726472806293293,-0.6952957675186906,0.18050603453245134,-1.2760124826954165,1.4516255359544203,0.71265734371862921,-1.1266619650252592,-0.63730291931646399,2.7882320440514405,0.263590168999637,0.54577061809423522,-0.51161379421854214,-0.18761099490896127,1.6074477990574945,-1.65451783954969,1.087639372546249,1.3413029718208869,0.93670918761299093,0.87044034470262455,-2.80882786703887,0.094715305048278978,0.25509284788995396,-1.1795717745287821,1.0968625063399626,0.70267705314944329,1.00948542978308,-0.37064650408126498,0.30504126982267576,-0.90415479140663513,-0.88766380881351248,-0.93171105382293384,1.5575048468985455,0.28216989127595943,0.047431453643550621,-1.6108700820097202,0.26362842258678254,0.47174747744559864,0.30395446608671778,-0.70147085446649737,0.68545870431455025,0.063523730922049271,-0.89807260579362203,-0.50568335654645813,0.77777417971354545,-1.6239548559109436,-0.50635054587450112,-0.92692659259116317,0.30894538991563458,0.27764620948049878,-1.4007645116569605,-0.73615428136378014,1.472732150647972,0.5476830317593393,-0.81287297645001888,-1.5421837891162991,1.0783841540875143,-1.1142427339271255,-0.15963254675637925,-2.2126668709825839,0.39694269531609122,0.66763589731446593,0.95052171226194215,1.3054419865833564,-0.13994566102638892,-0.12460721463031371,-1.0160674239429734,2.1663328074606705,0.19058014448878846,-0.26370054337685611,-1.2691238042047379,-0.97312233916747937,2.9457742264373143,1.8382880817751768,0.34891094595781103,-0.36829019861801543,-1.3887560500710299,-3.0230964081301472,-1.4410508094004992,-0.18734819953085913,0.48685959943312712,-0.31562190504845233,-1.1371606068069979,-1.1079444245069416,-0.73130567142586533,0.088843894929046541,-0.59785905443059706,1.4277565491927737,-1.2637277369623561,1.7216135161374513,-1.3122457075125871,-0.7658122720818501,-1.7749462764725354,0.44051264589985917,1.6986397537750682,1.0712355661502706,0.34048174736211045,-0.18823079700112075,0.57855809528984559,-0.3242276043472313,0.17881654604298808,0.36726440829361046,0.14934460797444218,1.3101739833044523,0.21445137462733094,0.41268518747649402,-1.0837726428577985,1.2400814699783043,-2.0312018543156536,-1.5060502969378136,-0.11795929378868258,-0.49073044251292897,0.51919169697027867,0.53098064718573457,-1.1910443781334126,-0.26195954469965671,-0.12015331361496909,-1.2433478171375967,1.3711512871323532,-1.8708241739980898,-0.48486133606386889,1.5432031896907734,0.68032848696969395,0.22853077762556848,0.9354036391913817,0.55576510134821633,0.6370091205993329,-1.2188764372560792,0.47444621256207581,1.5992022940864459,0.40852537375815695,-0.80773968181783606,-0.2938004420331341,0.28328512483935359,0.90259214709445268,-0.12488249568664851,0.6347921145128772,0.38588181875988631,-0.0847466786996421,0.80184446647515006,-0.61784518280265888,0.68038840964454828,-0.71701873570984775,0.60065239319451491,-0.44780197666580024,1.6946899658448764,-1.7427660487135921,0.066928169918648847,0.61406764306247852,-0.078569450437132718,0.65244979376877044,-1.5933300252496765,-0.57158178560981809,0.23373860533438903,0.15974597047203193,-0.37357680648586389,1.4654739581204161,2.0246151111295245,-0.89134093230001676,-0.24532520445765049,-0.97584506864694187,0.41895869244724526,0.039913602982644923,-0.47744008178579633,0.10181876677511949,0.37393642893810985,0.43316344361345804,-0.71240228704644193,-0.61681432400360114,-0.98037575273280209,-0.93928176947373343,-1.3925085027661177,-0.81523788068938807,0.80988551583516244,0.34895291223257774,1.8549728897207785,-1.6268846555030254,-0.14175788934872766,-1.0522088807405998,-2.6374454338074376,0.94077967188461442,0.33759576122368135,-1.9977433148927921,-0.3923840428096711,-0.50161049901063937,0.55220526909836976,0.33975108911734059,-0.096034891725942775,0.68934788875484698,-0.93514258815771045,0.073406146931322289,1.2469087115548805,-0.45777780416124308,-0.13126655140166327,-0.36033146315542669,-0.52401133371211606,-2.2907125474908878,-0.20415532321343946,-0.63696678994118694,1.6275227110810937,-0.85143068148398204,0.7502811648227331,-2.8785394377571865,1.4392206684527238,-0.34534783337823444,1.7503349723628894,-1.9189325377210331,0.73809516047866186,0.19561198973977614,0.25714023914465134,-0.66480549592828808,1.3071054583349957,-1.0973971430475156,1.0780585616748781,0.42846742247942188,-0.30331548614235404,0.75214210420243088,-0.29052623429920665,0.0080244286184519668,1.0944344270414663,-1.5127926738516235,0.022692584054003616,1.3585921022038057,0.83965708979375642,0.81357996551192802,0.88086480755662344,-0.96925209677954605,-0.99188585846979183,0.54750144389919797,0.61106831611349521,-1.268295949667174,-0.38264916834385754,1.0414324675058693,0.31842413097067856,-0.94901685032349725,0.16186565560877011,-1.1718551221985734,0.66108412041147924,-0.38679710269695866,-0.13306233041591103,0.54386364296498502,1.2363163295006188,-0.94697789890840622,1.3548335022402327,-1.1869221559825882,-1.3786456002507919,2.7439950477612363,1.2846733175331746,0.22604361453044361,0.26347500794316725,1.7793419974057936,-0.95721159126855015,0.04375458273091256,-0.61469034439423409,-1.1701993681024776,0.48541590779498461,-0.09016434684075128,0.80053624914890598,-0.30047095151923453,-1.3379669553907811,-2.3852731985059092,-0.55196766816432929,-1.9128866571383485,1.0182244939426826,-0.92845796504006095,-1.2189141406566799,0.77171913035783457,-0.66512125867336636,0.052154838661272254,1.9361275201152874,0.82564407212001967,0.91568377132690537,2.0304693750649365,-0.043347955400146312,-1.7583181493386555,0.12255111107187523,-0.67697716836368893,-0.081450569829672262,0.64883637697980878,1.4924521157755102,0.47098772105461995,0.72425013605428545,1.3713061493855219,-0.51722712208079713,-1.6648146085182187,-0.033957779106699552,-0.56444092622204112,-0.92274880125730252,0.16783048165128017,-0.12627114077774981,-0.53434494530653853,1.9033319551889323,1.4398252781769043,-0.47161293299098334,-0.3966724263444672,-0.53892764393033654,-1.6025635046154016,-0.0053040557352833145,0.48595278651590224,-0.38219171245926964,0.26996467358339143,0.3398667045480851,0.99376443530825054,0.44092650666746491,1.691862712934417,-0.24987910149632644,-0.58342205493683741,-0.61064091943846244,0.50897031408411941,0.49516789666119815,0.08728165843080915,-0.46381710962247102,0.74891848755415247,-0.4803146461186335,0.074209673964022269,0.72200222373044742,0.043105290012970615,0.69492190832150924,1.8338081351873172,-0.15425606179209708,0.44313835365717252,0.15208866178237399,0.88060377622742192,-1.1560708054724245,0.13447112933506572,-0.26072912595884379,-0.34601985560355497,0.12144584246439542,0.15893336693953933,-1.154289805274717,1.3527427517681097,1.0830819653775656,-1.233369599820344,1.4048707322998801,0.04559674940758765,-1.4432737175203529,-1.194340675900631,0.21094099631804594,-0.54763403326792026,0.75391475819862896,-0.83410758588616429,0.77034115960946525,-1.0838034377687134,-0.70764992539772165,-0.2861945072953373,0.35252301990963336,2.2144738802128261,0.4605004436446653,0.25395354030086198,0.52850779383131719,-0.17191642849646308,-2.3693699985551819,0.80052594800385146,0.20411585752494182,-0.67693365363970692,-1.547769972175763,-0.88411779101113752,0.26568868832599624,-0.94024890356438318,-1.3112827976928458,0.66162577926580457,1.7512872027875028,1.1452507681809032,0.90838846504617721,-1.2752752865348913,-0.3779900727234109,0.81694099399827802,1.1851629180005856,0.070638616392546816,1.3894423977359571,0.039230164080425574,1.1613533563764196,-0.25294217066176494,0.13497883949634773,0.4085239803164108,-0.98872419675927903,-2.0908391840495195,-1.4526071517895134,-2.8425804638352337,0.25455683944447149,0.88352503489653234
-0.18768368240846209,-1.7651751075541271,1.1461387306137536,-2.1980347677750305,1.1330463767523322,0.85355704479796812,-0.15347014793736521,-1.0041051226025515,0.6650511516612182,-0.80155388869219257,-0.16165016429211729,-0.21993666966487932,0.022999673715817674,0.48559411381749035,0.98074972516975378,-0.74819998929113651,-0.34253747641492555,-0.24620596611592097,0.62654472535996986,-1.2780642655370531,0.64592333423040682,-1.2939159153288422,-1.1272113249078002,0.98232208415774469,0.49366272515299559,-0.50606175270180032,-0.50313918286716541,0.037783637292352935,1.0545568105359122,1.2278130094261235,-0.32988013178951298,1.895472569425148,-0.54715951758870085,-1.1797136088653486,0.52711314248580754,-0.38191540887424957,0.24078094086388321,-0.30010295881833193,-1.4033093997139499,-0.45551400658570296,0.37019128090574627,0.35731720955094937,-0.97996212074630162,-1.6793951576008601,-0.16223523364025771,0.70353627019186582,-1.9020753806933828,0.38862602964008497,1.1412165644672569,0.51541812694963329,-0.22038556776904286,0.67920221625988886,-1.3962352346802613,-0.72235375953081193,-0.098140613865569382,-2.2267121526535316,-0.78264314764280096,-1.2862905379872731,1.329938193593847,-0.26854081968166982,-0.22249225576212592,1.6160000383732871,-0.36558326795250107,-1.1355282827286677,0.84262576564362079,1.454426292521541,-0.19759211061094276,1.7505815955100061,-0.0056075964076023549,1.4015734813598753,0.12996880518140089,-1.561784132786777,1.8292148939656094,0.72835150880443233,-0.70334083382395085,-0.95156527155558956,0.5073366508358228,0.19053939724820146,-1.9233893678832144,0.20928945819809597,0.33847920789705604,0.037983348456480562,0.45749346831218446,-0.38409250666156092,0.14973078803798073,1.1846649353103129,0.43499414181305668,2.2000943417782741,-0.015372512743103228,-1.2546145119636056,1.0356540228583813,1.600884003451899,-2.0294909960442031,0.32118230076452903,0.96917052708933205,-0.38749450167399091,0.24910349427031364,-0.13959536395095867,-0.66946789320755284,-0.70413359210550408,1.2145960317359734,-0.14521518066881323,-0.11273348926908904,0.58373544457978077,-1.5977839680188712,1.7302702806944419,0.70641452754877498,-1.0312561430493736,-0.047486727528855105,0.23066655389640914,-1.4528025633735184,-1.4166692740781377,-1.2669374761788035,-0.76832477738344074,0.46508662432284403,0.81650125801467022,0.23992607972420954,0.60403274304566656,0.94925240407976808,1.5882513980391688,-0.065495339215496079,-0.84926243067992058,0.82161219061105562,0.21324670978658145,-0.0056384314361206268,0.29188870978739717,0.3044178335900431,-0.35413751435111029,-0.15540987992716693,1.4527252639061525,-0.024043096328194007,0.66266775785306054,-0.060656398131220729,1.8293096153886443,-1.1780423866347274,1.0611103905893549,-2.0584470186136685,-1.0913883091485506,-1.4115930308965126,-0.31883453332264794,-0.042368743843729927,0.087778979142969185,-0.544084303046803,0.67301171116480352,-0.13048479016904643,-0.48741130519961778,-0.51737963905406603,0.29152990445381299,-0.41359691793764475,-0.015637605471045639,-2.5834446162339972,-1.1056182829437879,-1.2386588519651318,0.27547812791264714,-0.40054833695431274,0.35399410594387137,-1.2948526417907034,1.0646298058194315,1.5048363163476819,1.1937149174009072,0.10441390035286341,-0.99963835274747914,0.092270003581101573,0.57671192645656455,0.67567023928060521,-0.22287049497913383,-0.51278035812609857,1.3523304715552829,-0.23959737465363529,1.9012893674600375,-1.4869496700297731,-0.39917522092204949,1.8146782152729664,1.7823791337077253,-1.2304589904947811,-0.9065728591262322,-0.42834068024932359,0.33711569142962344,1.5372434447475336,-1.9435818764525641,0.030380556063751913,-2.1749515984321368,-0.62841851104641377,-0.12529565433885922,-1.1826444950415249,-0.88031397209896622,1.6084738401119389,0.18401379113000393,-1.0262200978680609,0.068006774607768272,0.63677596758604538,0.13020290337558132,-0.74894939941709948,0.56677826997288805,-1.3885904142479191,0.52245549752640097,-2.296234436037087,0.56615471213801505,-0.30338176714865811,0.75908494899190437,-1.0052403202165141,-1.9451610454362176,-0.55238316659755471,-1.1850296250103629,-0.14170533177877953,-0.83987513539183511,0.22168722796092394,2.276055517567602,2.149225481498001,0.40954662143193521,-1.366153865637987,0.36998798775695041,-1.2248794652339103,0.19432504608174866,-0.096702366134008719,0.8148083824173854,-1.2746794743680578,0.75285345827338812,-0.67049955546919782,1.6839292915568949,1.4098282955723074,-0.81988023223999074,-0.60461050908325953,-0.3485205175738601,0.21684860490585656,-0.57983057810698735,0.23585033744824696,-1.2789697122155903,1.0371408263610498,0.3370022411816806,0.24563507059243658,-0.51822504656549839,1.0467070425498779,1.4698499837186407,1.6682988468853401,1.3432889743142975,-0.01521296542059096,-0.90941368399161626,0.73410396714056148,-0.11180303055679902,0.96284159562300409,-0.25147977208328698,-0.69006185172991208,2.1103849048412835,-0.66952988325320917,0.11617006461056481,0.39981273604527889,0.8197557521760297,0.45246081285534112,0.39299239526626167,-0.31099874680351891,1.1247187319409728,-1.1117344047890441,1.1407815068110461,-0.53738905702808804,2.6054868688978048,1.8580296230688889,-0.860694193315103,0.002262675915112831,0.54818176854935186,-1.461937925185457,-0.62342171787609202,-1.7107292661193723,-1.3743202914097692,0.032452443327776345,1.0486208403604149,0.83255253286275754,0.29076117691378583,0.76392646705374823,2.3237847685655626,0.28087535066324643,-0.46882307177006582,0.36475452665748387,-0.87927148292372126,0.60680047798793779,0.044909326218343933,-0.51215649552404319,-0.217169167443025,0.01182052714432677,0.59304561931804645,-0.38705540562332358,-0.51190996056862081,0.64704014417177125,-1.7647839384584751,-1.4852911947462479,0.40232385180774682,-0.42531534493613321,-0.56738207442211552,0.58640095862451558,0.33713020584016956,0.42997010279293807,0.34079161949812442,-0.70122704823065496,0.93501073577854743,0.89165711587205754,0.40633665131334046,-1.8660890774599206,0.50054523270525519,-1.0919168701241533,-1.1740788809333791,-0.51704615898962203,0.36445842403586431,0.83505801985461914,0.39849811408979702,-0.91580839793608682,0.56255346052637634,0.36395204652161472,-0.060060368077390534,-0.69405506316133558,1.5605351473668878,-0.22151672906896008,1.5216615915685348,-1.8161475553045778,-0.37820723662325134,-0.1925825531148033,-0.71766363691357538,0.9259835198573102,-1.0940693620476487,-0.29139947358979057,0.24875419160452555,-0.90486405725697028,-0.93360119404222142,0.16516117227783395,-3.0891282906782349,-0.0056970171554150285,-0.3727981731100331,0.19921555455895903,-0.8003157032975261,-0.04005428459126046,2.164868031675014,0.50210118266301906,1.1182297718612677,0.66994703068248218,-0.79479390858577958,-0.58381261578045562,1.1624795160135075,-1.2972384324356725,-0.82679639549823947,1.1746339607831966,-0.11793856239362846,1.415839351356821,-0.081225434400639313,0.44567909204091405,0.78590030984420645,0.26926669612864546,0.62626262739268956,-0.26832231784859778,1.647615485456436,-0.018484962308074653,-0.063947522192230863,-0.82076906545829675,1.3870640728045007,-1.4676887522342905,1.7775260320080588,0.34448185794854885,-0.2172517378089982,1.5967965859679465,0.59367507236827211,1.2872613499148708,1.0102465885999035,-1.3662059127383406,0.058602123782249584,-0.22228603116369083,1.1323533865500506,-0.23102046485756847,0.50946727311673468,0.053695066489297824,-0.0079772465951406749,-0.3141539177715002,0.62280072977721013,-1.0731661383261877,-0.48680281457375235,-0.11477088608111162,-1.1736960076407985,0.44489322604581355,-1.0747959165090686,-0.68186545782146268,0.076243658255319993,0.96921959183529605,-0.41196255462589515,-0.52866813458516249,-0.80608279089430335,-0.80865677053115248,0.35404472841972662,-0.863236789681182,-1.1352122031856202,-0.027818010321034509,0.95414904643935283,-1.8147061310255157,1.3599345553752171,0.65420128581288572,0.042457287945688718,-1.2020610522611159,0.6136940228058918,1.6524959868441929,0.32245992316901229,-0.53686952433450963,-0.23206560348667635,0.73757010893390929,-0.86755910236061118,-1.615379139477672,-0.11377487015038353,-0.7855909705596329,0.63515930903250517,0.2826066548311984,-0.67517961942868221,-0.1859049138448407,1.6976700736054786,0.34432870883167993,0.57786572210238718,-1.1326671594615518,0.99880085831998977,0.091491865275461756,-0.31052835925082339,1.0884029583164943,0.38598718985393654,-0.22513283383680549,-0.34354489416655626,-2.2981145417041366,1.4184153403963202,0.055534436673152297,-1.2573862347393965,0.44703152656607026,2.8558406175563826,0.35426868403075362,-1.2756731487542352,0.86239518228655021,0.49385863812132647,-1.4081358433253921,-0.51330456384909207,-1.9978282586087277,-0.99970103350125128,-1.5106225124894637,0.9930833919117843,-0.11719680265778724,-0.27189182160905206,1.5004662599810572,1.4823653217957422,0.089418300755277097,-0.43026026005101836,0.22928895109727007,-1.3914376551584471,-1.5773772783730833,-0.33312208471257809,-0.39936965738010077,0.57908831428147944,-1.2928463796660659,-0.071406924674071878,-1.3436433136260832,0.020541449392383018,0.70967301524116533,0.49021143775670661,0.67765651897932067,2.2170126917373918,-0.44464457450165473,-0.694004558833198,-0.14773733445865297,0.67622772936905096,0.028707403484215181,1.2785967033267249,1.5182060174142515,-0.26890073039771933,0.77349435920269471,1.1368444178092409,-1.7565265554174525,-2.389653773054119,-0.59167816612789403,0.35578117741670501,-0.75419489572379095,-0.28284760557169863,-1.146064736468051,-0.19044056731730918,0.61447189512758238,1.3949973401532438,-0.0073541415866928495,0.29812551165624812,0.49300229651062627,-0.48896793961109403,2.2122886878293113,-0.6471841319649615,-2.0343680407509277,1.2854962139163923,-0.96186608456079803,-0.15532026958595219,-0.23205361426587612,-1.9858848986917839,-0.32577669988525898,0.44144670303753569,1.5996070256431389,-1.6638908846680003,1.5206034882339801,-0.53426752609806638,-0.53103623402465605,0.49404594594613255,0.55160342197627388,-0.14104596276264433,-0.17720200386854784,-0.21900765269242986,0.52251408946038536,1.5187599438998445,0.3764514093808935,0.59645498869647262,0.5486929601246151,-1.9810030660322131,-1.7479067627395874,-0.46577593562978914,0.014151686877538837,0.62604364697660708,1.0966643612285523,-0.50249460864280204,-1.5875894376348911,3.0930859517722409,1.5758504163784111,0.55176985418465008,-0.77255685220681181,0.61416212990384289,-0.3094376802493905,0.49843498161629224,0.53227320915745135,-0.27259428551570913,0.80656587870059826,-0.46026168193725553,-0.21059282062446089,-0.71723200002438758,0.086956928768613176,0.5610570147665237,-0.31062464149657559,-0.016540783070073117,0.16642346835357355,-0.14991276827731903,-1.2280762040022193,1.6395825938688333,0.1910602396405893,0.93955984740966103,-0.86753180219840231,0.95288618395412394,1.217288583315957,-0.48349954536631712,-0.76410855515471221,1.0828570297195406,-0.15070742455268202,-0.36836828155568824,0.53919177599934076,1.1571342690119484,0.66323692167941417,0.61253751115271182,0.81327041182112092,-1.2875229763890188,-1.2039509966303048,1.2568993872446903,-2.0915268548387385,0.68213479949106237,-0.41423924986769528,-1.1937947976594974,1.1136115895373473,0.77768795012706582,-0.36053065511413646,-0.093156895136847259,-1.258431365835222,-0.45005588424746173,-0.13454735040920857,-0.89006020470121994,-0.24187484701578066,-0.26055017419499704,-0.17960941439408662,-0.67563603148841855,0.14748826476567178,1.4150360273919882,-0.025840629224896022,1.5850594163569609,0.6838741399113617,0.5306668180644788,-0.47776326443444395,0.057398892130268768,-1.4301545309601742,1.8641754170096636,0.26961161827419888,0.33961232237682398,-0.55760492724551436,-0.7313664980607022,-0.31182095451116931,-0.42536696453595763,-0.19610414095297218,0.7356640526106355,0.64730554074793534,0.89628325597257852,0.93670208989819592,0.39618686379634371,-0.468792661484636,-0.32505514750023728,1.5480531401481303,1.6695603378865336,-1.3435162984532945,-0.13219320659551298,-1.5578763003626479,0.21325869581930429,-0.0081626237304730127,-0.9338512195490839,-1.2307181881265186,-0.47511518113324824,0.11486055840101264,0.30313643363267112,-0.19388176113258457,-1.3237045877319575,-2.2109160147959193,-1.080346661931072,0.8895898136355721,2.0239392716469466,-0.27652365985859861,0.59698994437128061,-1.8342202969844916,-1.2576086719625938,-0.93042412277846842,-0.69396578412450349,-0.58516723542861959,0.0014946696744950741,-1.1766563436145638,-0.87504536128576949,0.83796000678188576,0.55139905473648043,-0.33811123391933884,0.52565248733878278,0.48716308288276727,0.42677018975108921,0.93320489422054353,1.9330749355495087,-0.16674902031436648,0.50090317429861952,-0.55621483602182642,-0.60867577110030691,-0.53384548112327501,-1.0533283478183897,0.64434033261345469,-0.16238483073492155,-0.70802437731986323,0.9108301552498046,-1.0358711025037768,-0.90116038633707107,0.44329910234630254,-0.10188520437910337,1.8118335855721932,-0.46600362238224852,-0.030872843721495572,-0.50136746735425397,1.6081209612412632,0.26406212320239913,-0.0070517603344567139,-1.4446743916670897,-0.40875573624942324,0.16890238587103909,0.66097524246818828,-0.96294827677722183,0.69789714658891222,0.89242762764861172,0.22874466403932875,0.55334171744639049,-0.25378799636315996,-0.42184993303751983,1.1168364197573772,-0.63783232983664107,1.427293137093923,-0.53280562042687718,0.55498000421223292,1.2992464144168121,-0.92557654662137223,0.68094290829419524,0.90533332471636685,-0.43631569005047355,-1.0312338049444263,-1.5612070955469168,-0.49339995090952893,-0.51342548992181458,-0.41095614726124818,-1.0372403257010774,0.0053733994445785138,-0.43609324816635459,0.0038704175568777532,2.0714133963368551,-1.1882901399343002,0.1221925945456062,-0.48808455060079253,-0.26300755297200323,-0.39514678604903475,1.1255804119394699,0.14573583359329453,-1.3566013756085069,0.32437788934322448,-0.47139270995693644,-0.96607080471170137,1.0231051407795748,0.0054898002243959918,0.75256697536736583,-0.0021816074067111412,0.73755597440300558,0.16407348414821685,-0.9103082902333971,-1.6504158345957429,1.4785464743172994,-1.8578100754224618,-1.7506343866193912,-0.24228357939663475,0.090411936173027119,-2.4225340104547826,-1.1793252170017003,-1.3816050052503572,-1.2795124820680137,0.61786369939341135,0.22810858721641478,0.32476129348030058,-0.36522826345245413,-0.92105828455378835,-0.94995942193881611,-1.0101975543333288,-0.59812032677195526,-1.0683956669591042,0.86291883716200346,-0.13912719871964122,-0.022543849789024729,-1.2083559767030663,0.49734065843789499,-1.0147215685612667,0.95332781260700306,0.046132015760853032,-0.29339700824314524,-0.6434462657106329,-1.2593043857134603,-0.55262271759071768,1.4161490965150716,-1.3047062311026076,-1.1524736001272751,-1.2885449719246593,0.067954307458104449,-1.3354842558179694,-0.13930030397314205,1.192385905617058,-0.10292274122012825,-2.2507466197795813,-0.027072085423362379,0.3179657625402928,-0.99279128649908266,0.20731807737327237,0.084256395238223286,-1.4496888456553172,-1.9622756370461309,0.074115643664185396,-0.054926525909509263,-0.9303364795740563,-0.33405195681113559,-1.9067251393426117,-0.0024459737715622574,-0.8449832056577482,-0.38617638494180684,0.37628027661870422,1.587150720486679,-0.72541150565762613,-1.0970913960928392,0.52678061785079255,1.4444932478821477,1.2945317407123418,-0.37920796046741978,-0.29060500795647182,-1.3863015338664673,-0.046793319493749624,-1.1790065290238307,1.3995555351375362,1.5020593920043066,-0.47610973775237292,-0.15630539069784649,-0.094202329146490585,-1.8819165979101846,0.90375921601366516,0.8706755897498808,3.1461363221646499,0.58642280492570054,-0.9045252356922302,0.10052212058714292,2.9407659360121028,0.8334459482303791,0.545057190715179,1.7419499399513458,-0.86082526651322933,1.0526841463922669,2.146470224137996,-0.25717523800614633,0.6446481878466177,-1.4233774662856409,0.029027091104976442,-0.63408783160509796,-0.31560690613039799,-0.86022217428546344,-0.19960588029876072,1.4260218420913826,-0.31749611624965629,-0.85621184153433871,-1.5856855432975527,0.51460449135027653,0.76155101121311641,0.32894858871413157,0.04645992267890215,0.83572984843843823,0.17638192106307535,-0.49354572163965088,-0.47566171469393187,-2.7823399005358218,-0.98686319502997699,-0.22740135305974207,-0.52473580516180707,-1.1783609213909274,-1.1874483386882859,-0.085845044972225837,0.016784026309880525,-1.0950495742530402,0.66727800206324184,-0.42577726977318431,2.0474061935516592,-0.90529548570721496,1.2956183700649688,-0.45523275565574622,-0.6575903616784452,0.48505576656383187,-1.5193937193134111,-1.3260951439741975,-0.34551195142832808,0.32203474736309767,0.35542169068894874,-0.18714287974803551,0.26734725139234233,-0.4272939490232659,-0.41897219142415121,-0.26931292678751761,0.44510687798379278,-1.5725147501853791,-1.7845126052731479,-0.60682663787473767,-0.76671938170531873,0.53134726800782628,0.94713902308061948,-1.3279278612633147,0.87404131692357045,-2.7212732359930252,0.6421430453362833,1.9052485036896878,-0.7204568513475601,0.88004100566516164,-0.081687775153076375,0.11430167956757123,0.77622222765380222,0.38152789507839358,0.10992448527513847,-1.7763633570416981,1.0941476939270716,-1.325279085564121,0.55533354451723205,-1.439471446067581,-0.091119556597497792,-0.979540749194039,0.32098984949365927,0.29040027784710054,-0.011755549253845452,1.2554566761016674,-0.92785254520682381,1.4510275691486443,-0.22118494720182813,-0.0013473595989078021,0.84843159626088704,0.44096466851392402,-0.92694221204936589,0.28343002955152763,-0.32419141900737186,-1.0932743249809003,0.28742442408871782,1.320015280760102,-0.96950630493283874,0.41633960627030114,0.99341896093776871,0.88795486616211694,-0.28210491726726145,0.73155895095980772,0.56873831100693539,-1.4876494827840345,0.35550067607503211,0.76425338715828728,-0.78469703319519679,0.0027726938673593455,-0.25429383010338774,0.6988441605153014,0.13036850777171444,0.51452244043742101,1.5190048775674507,0.71743682336722414,-0.15281432084363483,0.82471623577760167,-0.53560033562217169,0.14998437170072421,1.824147257232767,-0.79917360521558034,0.087791817659128191,1.1250389870164776,-0.83642643610415146,0.23202542534916701,-0.20807056488444861,0.31140511421382561,-0.63190207410304833,0.98916598196321392,-0.59856997620675356,-0.69156707868906053,0.95247122503354709,-0.64087747907454284,-0.16909754109697606,0.58389759099384919,2.7034284138630018,1.1167748301410128,-0.92711059957376696,-1.0664224988825202,-0.36063756184026929,-0.11443479330050416,-0.14308303744510675,0.94691204086884484,-1.2920357861227605,-0.24112377129972193,-0.61715939800532527,-2.6958215323868142,1.2959189824297468,-0.24848854064425149,0.55680217056911163,-0.17113452700031337,-0.58870022870210792,0.10923891772199028,-0.54052501260131669,-1.4381213849026375,0.54411790074825872,-1.8907409779722513,0.30751670176474993,-0.094733587183689724,0.24753189646253076,-0.82865211122314453,1.0987358567159184,1.1542094744169118,-0.27474912610931668,-0.43075828963874041,-0.79874331819924094,1.0063242778199659,-0.48864631274105413,-0.88904851823455577,-0.53921887053919682,1.3027918009526138,0.87270345737163624,-0.5468755071165623,2.2428975059110199,-1.7485999128711129,-1.1972893028049245,-0.14281448405097161,-1.544521248627051,0.26611707008036484,-0.38917977089409844,-0.76914389192445864,-1.3569157151314353,-0.2452416015720276,0.95444857507517322,0.66555735629046164,-0.0040339593167191849,-2.8720393783439442,-0.56288693359777586,-0.94647207184572801,1.5218187469696685,-0.63775076096936945,0.098665320644750892,0.043617510303148574,0.6824312490169685,-0.76586019611947209,-1.7370309356884437,-0.6357262271684111,1.0329883475683603,-0.28166679866236188,-0.80900796512485362,0.90540376079558327,0.15182603784166382,0.21189474832521055,-0.61316854097497853,0.59388306137050184,-0.14723996606156411,0.52475829927556816,-0.33282341510802005,-0.69284225912584241,0.07937745514229437,2.3511544506586639,-0.070946071104303371,0.024760956250319717,-0.58501428601461369,-0.68339378941285589,-0.67745570686946144,-0.25623765419833827,0.12008112341452738,-0.29326138493755594,1.0783062912285086,0.12211436261758188,-0.97487831417835435,1.110263648365398,-1.1210942554803514,-0.75552083784774027,1.4807127809088141,0.86595173391890867,-0.035096894875980583,-1.4659696508950315,0.97027206499527441,0.36176027807149097,-1.1920294553015904,-1.8013622678637993,-1.5725509416901062,0.74655512348706698,-1.030321170942089,0.71758748449667109,-1.7658977469222539,1.1847485205693236,0.3630240574180093,-1.0921369479533181,-0.7517440354157201,-1.8483878410797654,-0.24175204007935128,0.71260199727228235,1.8307059148839926,0.91884281300896042,0.36308290322561276,-0.25139856096279434,0.72497096903208536,1.1136839561270064,-0.23202464345256107,0.51804783681669853,-0.81446531382276299,0.71985234068842374,1.3336553081673135,0.82988571980458892,0.35527451975101365,0.67083607122800593,-1.4136648294599328,-0.37211662492982844,2.0151474939209413,-0.45183114847552025,0.43124265151811031,-0.77061146256458302,0.61957511897469619,0.48221441716165431,-0.29216281604154765,1.5520256095491602,-2.0387382221877401,1.1315374605862014,-1.7529429513607093,2.3923463753106957,-0.1592011954886049,-1.9448156208291318,-2.1213763282516847,0.43289246966781325,1.9495525881311542,0.29621141682401664,0.83500571595513895,0.82027829959510246,-1.419392036695311,0.74243582954391441,-0.57512283195574176,1.8529943248633141,1.2447468531947434,-0.36427079560766945,0.35283794325821233,-0.58588010418375103,0.86107372219116352,2.0399917214077741,0.012131823120657852,-0.82056693059962904,-2.2919585806154505,-0.53781287532401989,-0.52883062329645325,1.0471617691446728,-2.422907781000712,-0.27061398348571764,0.78757615857452035,0.038270151550267251,-0.93986756805656513,1.260777431706013,0.17796151628914064,-1.8413285488996465,0.66557104650000831,-0.87501423595722583,2.1088691583873613,2.0012487504646024,0.53376868975524494,-1.1796055126708944,0.18063135624442453,-0.42095961244395214,2.2895286151471472,1.2057324296548193,-0.12631885908427248,2.1204611296631799,0.62025853188227464,1.4697650566206673,-1.7236046972866204,-1.4253979504906809,1.9334994272445003,2.3557330207194642,2.1912797911182782,-1.0714523836352947,-0.24770991147452007,-1.7277423701032575,-0.59613279945781328,0.57075199390321751,0.32249738901784764,-1.6190249953650151,-1.1276791616818322,-1.8428333484413142,2.0198986979838272,0.87546016048969499,0.4871827469257653,-0.73528315024045787,-0.65187748062662032,-0.04111306501811722,0.032662705830582055,-0.26808800104827679,1.2678928308139723,-0.34061359052330309,0.17976213585530595,-0.55944526200937617,-0.309114331545499,1.6777293657375332,0.43940757528304608,-0.29964066123019112,-0.6284284800502099,-0.45287354875214791,-0.18575637467916509,-0.079518258934821673,-0.81817738025667408,2.4969746893207212,1.5272926797586226,-0.93416479736772695,1.1060765261094248,0.54886980899898741,1.4848292330342749,0.55267622129670235,0.022834466502654256,-1.463581421698436,-1.0505630576372511,0.97374926218796776,-0.073393473773558149,0.90612121809307988,-0.56155589974428866,0.015565641380616741,0.66580277367857432,-0.60666017295893915,-0.15159985439787463,0.95351089824042357,-1.1608612835411174,0.58126558977866349,0.67094792574706352,0.63024407023080065,-0.11561172552031597,-0.47862549025676032,0.87230394807528144,3.7108275651189619,0.75186117418029197,2.4073774142824065,0.2186545776631639,-0.66421713076986599,1.2140449446671002,0.80186832063110147,-1.2560882370592921,-0.28271236510756409,-1.5181936329123407,-0.74542064879265268,0.04318140432898817,1.4285785105134077,0.91984849001460423,-0.36179647995280489,0.99730735676871063,-0.36725245048125194,-0.075067161567850413,0.3328211359272813,2.9717265024100907,1.9958257820877969,-1.041368825968197,0.059640981200998276,0.71367142423075625,-0.81799765545694392,1.1801015924775331,0.86284867144070976,-1.3146705456591792,0.35225925600712571,0.35289430865161547,0.1868246072524804,1.1983430694231261,-1.0026416656800159,1.5029091096758345,-1.4964385689511746,-0.091375576463311098,0.71895387981837922,-0.85756867605812481,0.33678099822775542,-1.1245410066835546,1.7946648114913795,-1.6006992363352803,-1.8113691580151254,-0.4206627943437154,-1.450581965434214,-0.86611895565007457,0.88381862185726834,0.23030646992429452,-0.014347174329906875,0.71867901023305991,-0.041278325276486373,-0.017607577084181827,2.6512539964414272,1.0746797867020976,-0.25474274860588308,-1.3324595930381873,1.2904850338174054,-0.63120726614800871,0.7761638167552708,-0.70002669884517588,1.0642598466036082,-0.38299385423774956,0.82826849072895792,0.70161801981487926,1.4785293535422586,1.0718724529955135,0.22558236187680264,1.5899250736074071,-1.1812289304416705,-1.3239070430682387,-0.36273888194312021,0.65243556440558703,1.0309596913952503,-2.0271242431597098,2.4151428919115916,1.2742980360774951,0.34634933535751877,1.037231824619836,0.30477710463810831,1.3460570808426742,-0.13289186224593244,-1.8213370451146813,-0.33730276752515365,1.9854130627689055,-0.11261400043939974,0.51629120645165483,-1.3222215855949773,-0.19662599473550571,-0.0042746969918546502,1.3409472802231797,0.9948249548773378,-0.49177019452856746,1.5925287477403856,0.89366588257889024,1.289596358125934,0.22895537318905268,0.48118554057447482,0.26682802205497952,-1.0426477059318149,-1.0221505675979938,-2.7782173381421069,-0.22101630518854745,-1.126365565528008,-0.10456444326322886,0.9160764561317627,-0.59285172204645331,0.29241098450363234,-1.2981363515579607,1.1573099731373202,-0.86734393480314931,-0.20085178246071719,0.096112557339719615,-1.1137466976889219,0.042656008543872581,0.11125370113013285,0.30515770455871938,0.32202172084315689,0.89006403595547845,0.007053585420568379,1.327552630294657,-0.046843033198815824,0.074372465301032573,-1.0504509736052696,1.1919642654808322,-0.3763556353304453,0.3711491995574433,1.1300186729747281,0.70786472995560057,-0.46735703859274907,0.52654532530989506,2.1633375552091816,-0.53712136491048201,0.13662729140390248,0.60772654606794907,-0.53329952496846844,-1.7597062979118145,1.0980454777303885,-1.8035830774520369,-0.72711020927337566,-0.54128731113517325,1.7455675193366356,0.040893807141623599,-0.11756064819401249,0.52487223545934947,-0.058016997230332885,0.37044888594304859,0.44515216039781119,-0.65260911959748924,1.5453678398638862,0.89341737300510915,0.38049476859308773,-0.26854451489235226,-0.24145925013840513,0.66818494773394987,-0.50376042718588832,0.29285213280038314,-0.47195835875347225,-0.72356138003654669,-0.57679311336923389,2.0866463434884799,-0.36578504955419811,-1.4759669184645803,-0.3246990039678711,-0.6730069312043927,-0.092436179423488501,1.5466758600463655,-1.2052996562381473,-0.98057172870021703,1.3063438794581523,2.0573060755072246,0.60951098155684036,-1.9534540786947929,0.86031040616734111,1.1915760944278821,1.6936760358156024,0.4897173814300616,-1.4101137507977153,0.74642943846678245,0.053092055593361637,0.4179604447061116,0.028352116059114387,-0.47292412339188217,0.16903310316054382,-0.47800620928152932,-0.19448568595996174,1.412083490550063,-0.36990659440850893,-0.99544905726834709,-0.91753781202462181,-1.4579536676680174,-1.0824404747583463,-0.36238341421727821,-0.049649197864158556,0.4572139384807164,-0.60349289282993035,-1.5571818657093166,-1.8983147765511159,1.3972729309249023,-0.27074607276129642,-1.3195585984032578,1.3965680509932175,-1.3982331937064838,-0.6563602829083186,0.48519529662253813,-1.122490159024718,-1.1223999770440132,-0.92051665913451919,0.12359027398727543,-0.42321026373168741,0.56429426385168868,-1.1248272971020625,0.057029538740320108,-0.1634899648932597,0.50755600295509073,-0.4577862748071147,-0.55847642912123951,0.39674576289195085,0.14651954906074025,2.2823030980190291,0.68478386587948714,0.52130874010037331,-0.10535402131121679,-0.77088544951756632,-0.29824632372126347,-0.40027301175255509,1.0723999322951618,-2.1411420012296221,-1.4022396345931643,1.2632251968683585,-0.34123049683129114,-0.58811283822377758,0.75170660871042039,-0.4716806953772521,0.70830155774310311,-2.0091185310353952,0.65570599107724237,-1.0567676387007792,-0.65433345221875461,0.92291630927519552,-0.4663439420836667,-0.87460717728853155,0.033832507031388841,0.13293935112242952,0.51010775439847134,1.3484687887361415,0.30822429243201799,-0.77443429176586276,1.160798757224867,0.3394899544586259,0.17851106052232205,-1.3899221733221796,1.8606008007409875,0.95398910367147027,-0.59024378882170925,0.28049611681759212,0.24322818671570862,0.50062840644887352,-0.82637431063542144,0.53590453099472868,0.35534801887561063,0.39684423925871926,0.31338056257005131,1.137916988316295,-0.81089781717302467,0.56693968143666351,1.3971141287748381,-0.18242684241711202,0.11911002449817511,1.2080955580678401,0.58158864223198037,0.36716059731113221,0.91644191942533859,-1.2198381052948206,-0.17293129399387869,0.5540122109258816,0.19691890490769709,-1.8566292765982719,-1.0898039709125031,-0.94038534331772639,-0.66889532638476945,0.9140532901039371,-0.69482279403692648,0.40297961859903647,1.3497609627021445,-0.26930225584001422,-0.79774596353401483,-0.50490134266191322,0.74196014251800479,0.47071068364315433,0.92699166424154045,-1.1158655066684589,1.4293950524771861,0.88576887958603545,2.750384495040993,0.11279513288154842,0.34583172351370617,0.04805003055216242,1.3615798812462783,0.87711173812715792,0.50411930957763307,-0.68544781769582097,0.67092417891246781,0.9947678470105642,0.63381767025078062,-0.23689587769443229,1.5519638778155045,-2.4639124108583812,-0.78915314602731013,0.82896557201215393,-0.27832864314594502,0.86527404934488994,0.061244267295715679,1.3405843361123351,0.68456501247980373,0.89855984040423065,-1.1595078046653633,0.14546142486319566,-0.52426308398886678,-0.2398963759271002,0.30681365979049752,-0.13765649973990279,0.24453587112252062,-2.4609583389268437,-2.3419882488751833,-0.2929620089583746,0.80174066306099556,1.4013036112166155,0.41976151986901222,2.1338580855220832,1.2357992426227042,-1.2394498404451439,0.2341955308498066,-1.7014403504770759,-0.5963695937698138,-0.038255988242290609,0.68249859165086468,-0.80217364048186979,0.41987516999727104,0.61621646312230471,0.19607494311453608,0.76991922307828298,0.73377225275498414,1.8310995321615895,-0.46644072014924204,-0.80836209143548543,2.1101579079059416,0.61714916611580795,1.9765672785474147,-1.6120542924672943,1.8111162844503008,1.1474504309599614,-0.4705291185174017,-0.025603278202918675,-0.17709955838368036,0.81309815983199674,-2.3475602434282674,-0.98370877002099721,0.47870197717144292,1.2075289306553121,-0.40352053157264522,0.39299676892774266,0.22070475058875028,1.0393188541776357,-0.66611953855965955,0.43342074562809896,0.7958062764892635,-0.87239186497456545,0.52530024008512488,1.8722786145391186,-2.6146854370921124,-0.031541045517750242,-0.031172152870986475,-0.034538819007785375,0.93318477874108674,-0.36779440108833733,0.93995578855474671,0.1892896778655643,1.2235308949720751,0.12918851648999469,0.17086483533464106,0.12847666954188755,-0.63463802118109502,0.088650033238424422,-1.1960503096151556,2.0274049758030146,-0.034518608406969027,-1.1482851848716515,-1.3881569763402961,-0.88023420521246087,0.47227705812352994,0.96835854078399775,0.55029711875247145,-0.36274128887725138,-1.4737952587324934,1.2872482017862843,-0.9538732184715718,0.22679478663368555,1.9394883282695037,1.4741493855512648,1.3900826931930261,-0.62763710395378725,1.2291899057739797,-0.087932605053603438,1.3428197546195162,-1.7758646891665091,1.1681701498239077,-1.2003358834120608,0.011959876922668155,-0.61030423873783302,-0.11479813117766016,0.24014267528903385,0.66013035616526961,1.065836401490512,0.94947819331014016,-1.2813475082767756,1.2790917678413671,-1.082774613115246,1.309460007589595,0.36091397622488874,2.1623798340705482,-0.57870655556830952,0.4704752592158189,-0.21629846756822538,-0.42142005298340801,0.26323372106536502,0.85853924416053806,0.49959286531021152,-0.11017127578697501,0.22349095374413794,0.44553248678090568,-0.69808887204924464,0.15243204216516784,0.53612400329052534,-1.9677466489918989,-1.2687179791174756,-0.50921004325379426,2.0772850866894386,-1.7288306120673487,0.033402674059214127,-1.5382948044445695,1.6718758274426411,-0.14886530568486173,-0.73925200206178521,0.62360416876598912,-0.29899632495721035,0.81607106713251565,0.055903988131134029,2.0802293637610703,-0.15850152628957445,0.69062437579482894,0.80644470368701249,0.45539353449659487,0.27834959157426942,0.78529608987179444,-1.2161544297888025,0.55058912195423404,-1.1005436843154859,-0.29141583695028556,0.10710916118281712,-0.18972005169096748,-0.11118017527242016,-1.5362008701750201,-0.59306726300277157,0.56038519676652754,-0.2866589213556251,-0.3049383470228767,0.44988250011259773,0.83266684388084944,-0.82486583245709366,-0.66530678613118199,-0.30580839144604977,-0.16553153518455851,-0.3005855281753898,-0.96630004760204802,0.47917284037832819,0.48849679578410132,1.3388720627495698,1.8571592575723583,-0.19834997981783403,2.2091906308512907,0.40164812703983144,-0.19290134510746657,-2.5558033037139083,-0.84676039489666877,1.4998243893039054,1.3245461161676266,-1.9741384915590157,1.9412476777039935,-0.38667164330141279,1.3207540440413901,-0.87742990665978338,0.58428883914041851,-1.5191368103958465,0.10002782203095231,1.0536809479876617,1.4870465762381915,-0.99214444654836742,-0.987814676176901,0.91276686126780193,0.39873479309870641,-1.3778707549529614,0.91450560438503237,-1.0018117983091128,-0.19502014956734373,-0.35081796872204563,-0.31297577861213305,0.56016239388359013,-0.72974573954412525,0.40114794512110086,-0.25684728593214529,0.99586388267459169,0.094380542140680229,0.30126554172735726,-0.044283386823883178,1.1736282088264032,-1.0800919480020383,-1.0390455359988848,2.1048279022327474,-1.5071862754621475,1.1244665652976755,-1.599000626440767,0.62180764155206436,1.2078147486173409,-0.79165398715577684,1.007447209546348,-1.3873166683020939,0.37494008439723947,1.0293417105355103,0.2047201912610509,0.92028272854768856,-0.8521631784457,0.39748442746422269,-0.3668259743724499,-0.089221997612075762,0.028702876258263552,-1.4863049438534448,1.8459969092033535,-1.1589183125260984,-0.34427968116770818,-0.73848950450253859,-1.0922410812468419,1.7615764698804419,0.41425685979674348,0.028353565646914495,1.1153771058888211,-1.2364189953307063,1.0909666041887645,1.1489967740356188,1.8171345743575473,-0.84566420678502963,0.97726281697704909,1.0216104531240826,1.2832834908800903,0.52688286145013763,-0.68318091525864011,0.092098529861870365,-1.3522715547669875,-0.14620881789713852,1.0801914411926099,-0.64421204955473177,1.0642840357188004,0.97661408400652749,0.084026743196140716,-0.18348719570026112,1.2301159206891141,-1.3768966919399479,1.2886397761958894,1.3767120292191197,-0.36843581016968519,-1.7062666626971097,-0.20739908086424225,0.0552141969795387,-0.65241972226479927,1.0292643615670241,0.9633061397626147,0.64543682632844257,-0.77458810963801361,1.3926570407519987,1.5323071527840708,-1.489262208716301,-1.6917361987227491,-0.21083600977010636,1.4544747428570839,-0.84292986698786565,-1.3444582618621665,0.5239306837551847,0.69969720046391437,-0.66540511230860322,0.3630888013058961,-0.051083365071992841,0.1422155179201848,-0.95645650307934404,0.83463411582724323,-0.0075097523139195299,-0.8327699200587414,0.46005199905994976,-0.18462327210218232,1.88628693129212,-0.20521666461699306,0.49303844678939845,0.12210182627130078,0.064989361688617436,-0.62745129530475918,-0.26568625658205125,1.9856471780455265,1.7444506111765981,-0.74602677576529841,-0.44984940384380184,-0.035502664913730074,0.038307327542274353,0.6664007407358582,-2.1174328794382622,1.8183928699374117,0.64769966903933995,0.59470605020199829,-0.53457410671734285,2.4586968609066844,-2.4564114384508589,1.22500103617148,1.1858988600273668,0.5243081344914553,-1.0363429644251616,-1.0378194425474414,0.51304454603109184,0.47810567475077959,0.55506705001646439,-0.15496639657376857,-1.0204873116742434,0.62294553651486306,1.1597615921052697,1.6724179732820514,-0.71723846395516644,-2.4515202418455426,-0.061853774521391305,0.72355692724416931,0.52706468535665285,1.9901040768021161,-0.44031914965549723,0.69317179486653269,0.17067676519044436,-0.35085300803527958,-1.2463834686747111,-1.0039679064326303,1.3876701908512621,0.3582391972947831,-0.33933686836845089,-0.72372944800933192,-1.5920292463800814,0.3687254846285376,1.5140996148311376,0.012644177447037426,-0.55224455915185555,0.73689139115899704,-0.89989810026765948,-2.005281805389405,0.77094630868444003,0.40108536764785818,0.59308673235445042,-1.0632117641989842,1.041753071340966,0.10757827673464929,1.1150177771521284,1.808179230545869,0.065915312796632042,-0.7604881445662961,-0.38377499669202331,-0.3364991950446436,0.34164402622231826,-0.57194590120687561,-0.22915617519031597,0.33329071422457368,-1.1909571294825874,0.14084426428704377,1.4243423460686144,0.38621895025786174,-0.67124078748322258,0.61890047212162103,1.8609591228661879,0.33605302332057085,1.1596573623156454,-0.53015268223188738,1.0730342622814115,-0.015891835646767084,0.72402307033351998,2.0442680496789691,-1.2508209606553231,1.6187383640119204,0.51244784756765183,0.80036351771775083,-0.21537558420693881,1.145587665528814,0.95893908003739425,0.25366589913211846,-1.2732345597294135,-0.55507920832577928,0.32417990245288275,-0.22583113284681566,0.78055799412329718,-1.008763934560291,1.0674946258413018,-0.51637490171092215,-0.39796856881114817,-0.91884708687991323,0.25208555759984447,-0.15530267696658695,2.0109455065848487,2.2238152932353659,1.3738710786216841,1.4779363212306038,-0.45831067913120926,0.81993748259542543,-0.063316108100031063,0.48652046096196061,-1.6665686814380059,-0.35778685314790404,0.80185889256052267,2.0134113296767393,-1.0517572992547446,-0.11899154056202925,0.14326871213938083,1.9227793492957803,-0.83098820355572212,-0.66143593564638326,-0.10997049889883537,-0.059302216547460894,1.1210409937167722,-1.2374182434654908,1.6388250401311208,1.4554005924974893,0.86564140077671892,0.97025650997514978,1.2814930936153062,-1.9879694490031523,0.048993121900370966,-1.2576217637172913,-0.93965620928385074,0.7816553294841746,0.32136519774951883,-0.9354668402382319,0.70641587749939849,0.11932219566891514,1.2596848565479022,-0.54203899285529,1.3977882544591125,1.4878842190138857,2.0252737593953078,-1.3625757578048983,1.1565904125899875,-0.21212407132872643,1.0787833775548454,-0.16855993342231967,-1.2782519694260686,0.25848294491375012,-0.08671075082814092,0.25239069642760703,0.46453427596309432,-0.44870520317684542,-0.28869603953360445,1.1461874903085467,-0.18436706551275395,0.058927225038091065,1.1932610954889065,1.683624738888045,0.037880889354631193,-1.8759901916123396,1.5627293202476278,0.46866883993570208,0.046581030480680491,2.2940530191499562,0.31075558515355761,0.44211387402467983,-1.2636656846843111,0.6945379433803357,-1.7789283575815202,0.26863935169238151,0.9138568975526451,1.2949111324837201,-1.3580992317899372,0.78636550870103783,1.5013724840258709,0.082831064665550846,-0.11549089900198266,0.50497712865154709,-0.31650996409538984,-1.3686311031695599,1.2261568257626154,-1.0351057777454875,-0.24717632052181324,0.49910138079724936,1.10235937833981,0.35144946384104253,0.5755700744297797,-1.4972772153189959,-1.9052486557588069,-0.42491819586092977,-1.6858845897242967,0.34311474181521384,0.35346288822123906,1.0071237246793332,-0.41246851855326505,-0.031014304248255378,0.68048755831435848,-1.7712734543147834,1.0087344525329414,-1.3535123886311311,-0.53394504120914754,-0.2565114455884096,-0.14828702768119345,-0.57819575201662621,-0.12996260842775625,0.95895441815029037,1.0725478257074164,0.66350283929578258,-0.79848511676700595,0.52559055726537207,-1.6758347022762863,-1.160794115844717,0.4298425837496635,0.60754937483744231,-1.1534245271360086,-1.6264472052393495,2.3206211201614657,-0.37718698943652001,-0.077589558135865835,1.2900336577015714,0.70875193383218693,1.2089683648442469,1.1098514897487972,-0.064283581548031016,-0.98254486029863908,-0.36823190427705121,-0.41482209369822809,-0.14448015279099682,1.2813500855420292,1.1304643512680905,-0.60343834316250544,-0.71932218351041233,-1.8930655502139753,-0.24349483583260476,-1.4696515891723803,0.6264976528817402,1.4854985695174561,0.86336734925925807,0.17165850768459176,1.2933424386435515,0.39839305172066852,1.407789426726219,-0.70731444160169066,0.23559802520979573,-1.3573503778818488,1.5224156207146848,1.905484040173042,0.82742917358845636,2.3252868537662166,0.54848417549775852,1.6325316389769693,-0.63219920104891336,-1.4569511755946358,1.6379749606738585,0.96415459779233215,0.13693127966299559,-1.4363028872358314,-0.9059999721455464,-0.25358657555419573,1.210309831933073,0.74375076681751395,0.80259113256192471,-0.76530202878409737,0.84895357547660499,0.042018649326566161,0.89715505400608409,1.3161617039255538,-1.5938571907884647,0.41926330820106628,1.2071746449947314,-0.6040909671348782,-0.60865604846429722,0.77012161313812433,-0.78994931942502489,-0.90136964118421703,0.17923319697325121,1.5792312159028719,0.67164137372731036,0.44022654186722521,-2.1290119875769293,0.6478343968816177,0.20134567803397127,0.81671252110130221,0.045110664162759627,0.28579101869765433,-0.59622899071079061,-0.078089963308267826,-1.107012614560581,-0.9811847163494114,0.64513091189136373,-0.60891923153845962,-0.31696922943151012,0.21764900968395343,-0.46951128182130791,0.14586482078262963,-0.72990528560906354,1.5749417410378881,-0.30162997595271124,-0.041911027871922503,0.47760812250133178,0.53563632513052239,-0.36030867203911354,-1.0782642287067323,1.6809177131560948,-0.61256157901307839,-0.49917316866956207,1.1251268931621505,-0.10712658787104787,-0.17865880015462837,-1.4949434065747196,1.3793267106797893,0.78938867630903076,-0.52974109427634941,1.0255736514997937,-1.8241683901581423,-0.55799214550886456,-0.84442088937046744,-0.90389894984591002,-0.48999433153869726,0.6145569746090036,-0.52898874354263015,-1.2202620584236989,-1.0503761011706718,0.69865157151737023,0.21036666328000256,0.45106973796045113,0.97318117207963517,0.066741384194012363,1.2996486935827036,-2.0189935129755852,0.42572730113272861,0.32430203130679924,-1.1370823007415294,0.00010012594719318956,3.170630836797816,-0.70310918708210735,-1.2601307827820911,0.86865917236790435,-2.0984972191937987,0.17685288876519767,0.051062157516976764,-0.34817168265705267,-0.098617091628067505,0.41903391579245552,-0.0023849598371032429,-2.5319366879696887,-0.024461873342821898,-0.87620086376875506,-1.5022991335316618,1.7091964736550307,-0.37060396036503279,-0.42509168428216976,-0.43354050208403605,0.47636305836491072,0.023994359675247202,-0.0096776950888330712,-1.7159280336620659,-0.41445894558259333,-0.92852844491040432,-1.3848335041276241,0.42796367010413594,0.51362895275497467,-0.79972677473877052,-0.28686547844593729,-0.1759144859375722,1.015423465106249,-0.025799472542661926,-0.47752419117399003,-0.456621200485058,1.8731578404116616,-2.4257523540867818,0.76453186248974025,1.1016986196250538,1.5172796575569931,-1.266239642922512,0.93192185771909786,-0.23641356161719781,-0.3575451715044653,-1.3707150486787962,-1.4295195703486452,0.81085870124583581,0.27535972164948491,-0.73136517815607449,1.1480362668201123,0.38011038651087303,0.19678603198909564,-0.0090898251433330496,0.131643280562556,-0.15627045220428071,0.047559391346782026,0.37673306047094091,-1.4025986184762207,-0.41387776643046387,-0.80935270790634939,2.3626808505072434,-1.2917896163507094,-0.13790838880554096,0.69647161356459519,1.5035100105064223,1.4321085984054827,-0.55881956946285649,0.075208948531847383,0.27823549199238312,1.6813546096583798,0.29933808146918311,-0.041443400161594576,-0.095234731250130475,1.2382347859419531,1.3513295873609636,0.28435393042696311,0.16409208817905074,-0.3181618491613496,-2.1574577577599472,0.46095099084821678,-0.18728481135717384,0.92482236535856777,-1.0216314143325014,-0.10916027468792505,0.043558773885945611,-0.69349699485956529,-0.313763984376278,-0.23654431430334294,-0.77652321604317731,-1.5053582237371774,2.3882787689637883,-0.56246826698681363,1.0650351998794259,1.1434304276253298,-0.67937113279894767,-0.94436128436236078,1.0825220568584606,0.10066293559327506,-0.94757538310462963,1.0547661459877833,0.70057321849480281,-1.7918563335325772,-0.50680121857774407,0.26650713012890348,-0.076533944901131343,-1.5957337329631227,-0.06625918150243737,-1.0034026769159434,-0.33305708212779589,-1.6223399660712254,-0.20563624236460781,-0.16260049232877904,-0.60250983778932476,0.59178652227644168,-0.76693575320928487,-0.76281852573486331,-0.15454295361145537,0.4770941452800781,2.0432698031310856,-0.20275791777870861,0.90315076168335018,-0.095893453038124049,-0.66307496588326287,0.75596471290961043,0.98805306315005248,-0.35309776775552182,-0.15568467660186391,0.93420604615422809,-0.55330561458460914,-1.1366650267622183,0.30013160184717608,-0.78229495165276164,-0.72990258231069816,1.5733782145728821,-0.30329231762887238,-1.7586678466713406,-0.41047139593278509,0.35818395287963284,0.31625859589653549,1.1394545825263704,-0.19719009989955527,-0.82380408367305558,1.4017613304277647,0.21144391485784006,-0.54750498122455804,-0.36745396982116962,0.32790051886564842,0.86389763551900278,-0.61739056214205901,-1.1105957110794107,3.0315672245223073,-1.0292470066065345,1.5206928403879536,0.33286221050995068,-0.88308198803728177,-0.28597877567917501,1.6944322729076833,-0.25127610538278966,0.16704728423113488,0.32403758496169077,0.56091206549511952,2.5624347466767308,0.83595900250299071,1.1562297017593441,-0.61208729667422612,-1.003935565536846,1.499432186440856,-0.43482037207298774,-1.1894333884987114,-1.7340185557198413,0.88893665275947975,-0.2002562319375174,0.19099957922480176,-0.45671527925214356,-1.0446872774946752,-1.1163905842019783,-0.19001184831127105,-2.4447869915197771,0.412616212175271,0.83825034964058354,0.12882832103761765,-0.34351063628345985,0.63287161225273625,-0.85094753970002279,0.066647956821304172,1.0152970035689124,-0.50112496882020019,0.027494787112984153,-1.6157302757069534,-0.48872547134165761,-0.78661758128674097,-0.68176704862662918,0.0014721917452455121,0.773144525303469,-1.3421756080646634,0.59835925795174527,-0.61933170299544016,-0.22871144528120199,0.26082763549505444,0.17226879442911081,0.57703538033674484,-0.67932637407284613,-0.96132020135559948,1.3340867409058488,-0.13098711257464149,0.021057361222826004,1.914735285034358,0.2071836190849079,0.023576982889957954,1.4561927254539848,-0.64217270707657226,-0.85650282461733551,0.80527646339281145,0.68003190126510771,2.0055375922490866,0.37291200100861416,-0.60372888185413121,-0.20609434929045425,-0.77321310083231776,-0.61235287567860508,-1.0969643775916227,-0.53152616245490725,0.067249310410338783,-0.45147919035766726,-1.3986413077763433,0.81927438767993177,1.126853742955344,0.14184795997729382,-0.12173346994349418,0.68092473530650832,-0.22737889643137421,0.38573701184063813,0.89283202975574993,0.61979625712457564,-0.11118218276683499,0.95382601064334382,0.040515833405812343,0.47311247709818482,1.1519518070601407,-0.73152061512801703,0.40877002505775056,0.5973409438598789,-0.60561640907966674,-0.80871129450030199,-1.6638308577598599,0.84279769345101563,0.2643884146741976,0.59953777436573585,-0.5448329011832882,0.35566103680071515,1.3827231161051516,-0.19027063865329952,0.18320716722858216,1.0409128071727931,-0.89779065404396541,1.0859980662687518,-0.20741998358978581,-0.58485985648470973,0.27923415531262297,0.12718728074417177,1.0523011400077582,0.37829100115436037,1.8286459982063845,-0.81787359180361707,-0.13150738945657497,-1.0254340740524963,-2.0226937344901388,-0.78626848770711022,0.82970955831697402,0.84328592036862104,-1.463019824150813,0.50328005444705914,-1.2951328323566906,1.5956520908611918,1.3743046413881665,-0.27772781556399845,0.2745346180435424,0.40249111718023467,0.053476076568898974,0.27320542928616981,-0.93266736078414514,-0.4862608578535178,0.83958162894902622,-0.70719383725508611,0.082088459831867425,-0.39405182796599764,0.2266510310727772,1.2516828228392445,-0.16629120963555627,-0.4282206546097917,-1.3236632849511194,1.3659220262544671,-0.10933027299232233,-0.61023998957433201,-1.4471458329621751,-0.78863446675747806,-0.022075023092697748,0.58393142718142588,0.50509154912155252,-0.16669714846256686,0.78354103401810671,-0.18038715319682913,-0.99847344196530963,2.0010494756162207,0.81275695911622436,-0.35571120270085382,-0.035659937836377956,-1.6063084121139204,1.4156148560394566,0.86717166797983514,0.21060664523835773,0.05630864132806114,-0.41168500495061633,-1.9236196780387318,-0.69729476444503558,-0.12574837163059832,1.275708756776434,-0.47456677717075674,0.79727992269754766,1.0969807679268282,-0.65304760335902956,0.2907236865214996,-2.2417831029682356,0.5537097623203453,-1.5586856355145378,-0.20930814955053656,-0.308254436526886,0.64016081826162574,0.88692382012664095,-1.1629539054427105,0.52384605182184063,0.72173182021308413,2.8187815173827091,1.4206334962578668,0.0023907578722970938,-1.1635100524409869,0.14415748373811921,1.4675536936973659,-0.17022861889833027,-0.97579145715126492,1.83433348436899,1.1937184640177996,-1.3302553816240006,-0.15335297300274123,1.1750574815792698,-1.2032054923552122,-0.15002558251718712,-0.6621687689160296,0.31107096214694296,-0.040481605328233777,-0.94235891704276342,0.70116730508907643,0.82016949086809798,1.5715891433761244,1.1353285407218632,0.52643537835578635,-0.01138402166329007,-1.1659993079390583,0.97865079747484207,0.45746407405072131,-0.014369831265742676,0.57748023271023807,-0.35059536229578847,0.2378885134841785,-1.0654786680200039,0.63875976150730041,0.86417925647461025,0.024585628935526582,1.8509353459415436,-0.63460020013907936,0.71355942233060932,1.8840059263180544,1.351917029174599,0.15033001070596919,0.079337298524170249,1.3900814996972224,-1.8914090055287529,-0.15871434876332433,1.1569726093683748,0.10643151742562197,-0.073810088965568094,-1.9092523643170956,-0.55604886025920053,-0.18379762000938593,-0.56699318874900106,0.27302670699489068,0.47808357107948413,0.85777470013133217,1.8163018449077017,-0.94997736265665944,-0.106705372230049,-0.30365716066198789,-0.7260664419329238,-0.84278421677513349,1.1910321167500408,-0.79994509818073867,0.29963745904078404,0.29865484057276465,-1.908100769357943,-0.73539630132745215,-0.27415711048431801,-0.48956774360770311,-0.74783901828196409,1.2288025178561699,0.23557313387850912,0.47806742854823925
