-0.43090893715306983,1.8908806796572697,1.0939663754515445,-0.40323244715675216,-1.9746804797162183,1.3619027438389084,0.37691944938451094,1.2465570992834405,-0.79354095422136528,0.9309757067438692,0.5199966919356882,0.57358474383958991,-1.6444673784282824,0.47865044270732099,-0.32067841001151892,-0.55395641835108178,0.061423529096555879,-2.3114426548379439,-0.22389835851313492,0.25605839294453453,0.83162921281373847,0.2848950572566461,-0.8461831629515445,2.1224427590332082,-0.098000190370122198,-1.1621844583641296,1.019410413321473,0.37387965517468319,0.3745311300505782,1.6096873784606205,0.41116880546263773,-0.71366665248809225,-2.6573699308522762,1.2607265680909119,0.30971770320965497,-0.93973180808199608,1.2889280038206516,0.5547689775012955,0.63719379572413815,-0.077394872707596443,-0.13540150947655444,-0.80245631130281858,-1.3605901200839499,0.77977520677513135,1.927314082984777,-0.18083912735734881,-1.3996858986286487,-1.1555390790935809,0.3369549835027737,0.13836699074804579,-0.18805922538879938,0.38475345500596275,-0.2194482988132232,-0.90450706103403489,0.26241363272443607,-0.46923900276037772,-1.1899169136258312,-1.9077670797661754,1.2702175085668592,-0.92849936348163919,-0.27327617511601726,-0.18998085716303717,0.23542169114578518,-0.99067764151297977,-1.7376352259923511,-0.64078798769089551,0.12309909562034391,1.8041244382523831,0.58623378773626511,1.0516985427918644,-0.39191246822765757,-1.3532729494223388,1.0083424361619455,-1.5888627998556333,-1.7934722757809256,1.7616066746548202,1.6491311766227856,0.33004532763310473,0.079641043888738411,-0.38096751958618691,-0.33753782390498638,-0.71138679572880115,-2.9403015680426883,-0.034286483323296008,0.05017413599914438,0.43337772894588689,0.60759745361500939,-1.8028615100093366,1.070923418282139,-0.92040392973770058,0.72388847312347271,0.98969917335547231,-1.5542469632352089,0.69006043791016392,0.96721465897247594,-0.48744974533470314,0.89614680721767426,-0.40480170596754145,-0.0037157735053783554,0.84533944221791268,-0.75747078098971876,0.32605520206581268,1.6468626808816069,-1.0570755410434038,-0.78697595434802059,-1.9303005694050259,0.51669670275275681,-0.0058466123188280691,-0.15660820250760368,-1.2067576626598502,0.27486958628642816,-1.1802682615897016,-2.105950564886458,-0.16737396331332322,2.3371052044709857,0.027187351686248591,0.99797284121321217,0.1607052661369362,-1.5092708015515257,-0.86011781981347246,0.91758621347464431,1.0891467460211599,0.65345772457772244,-0.53616970470374004,2.3150766684413053,-0.24669978850959226,-1.0218707570544727,1.6846524444998134,0.64728735405625859,0.40897577800534535,0.62157795366881086,0.19931382177829543,0.56011020440473769,-0.049192921235227782,-0.70069361801430352,2.4202141688694985,-1.0286622588237004,1.0373831301508165,-0.61039982561514705,-1.4415159084151026,-0.077010569603676679,-0.071649021277173597,1.0132105404450706,0.43343977258620164,1.8443455472142787,-0.11934083273061998,-0.10975768221279558,0.040094831931644315,-1.1582884892632215,0.21110756923488677,-0.10992393542738645,-1.0809522464432431,2.0698043552356102,-0.29620155704965012,-1.1548698817377119,-0.04174493629656241,1.174989419321008,-0.54086515116531886,0.2529746768748527,-0.74720215864602046,-1.893065388858276,1.6657661298092084,-0.85161913734562422,-1.0846137602582424,1.6622641197476202,-0.62548378265036508,-0.050058246131272688,1.3887772721289731,-0.29631135669517428,0.18938157899420441,0.33660127561396364,-0.32468467076783453,0.38423109930795091,0.88991499397911633,0.87873822990765305,0.58330168717196906,-0.23517372073630469,-0.39628248597473087,-0.80748069006357948,-0.55460348532858661,0.0100196738925734,2.7397458529060392,-0.72870245810384116,-0.0030989443908117963,0.012121089241107701,0.39827760675510321,0.59376319990773208,-1.1250778710443055,0.075790556491402997,1.2598723687265159,0.74687103481799622,-1.2116827349651966,0.99365885969772572,-0.37589223261976989,1.7169268944662921,0.11675236703424266,0.19718416360774832,0.16070995833603507,-0.94843717348060541,-0.53308622197861133,-0.59017873932562592,-0.12735114451799059,-0.80719769877380587,0.81525854511480245,-0.7478344235918698,-0.32868804667353052,0.12340748264217438,-0.33690184973806891,-0.4932732877909155,-0.17409743325101934,-0.85564694251175999,1.068315805115359,-0.06889527517462822,0.35157888376502533,-0.54029439840493954,0.089953264040474587,-2.0376759972109673,-1.9864685777084188,0.58240341998982947,0.35570136960840298,-1.2756307798314013,0.52343113228836913,0.42750395036159794,-1.0270170463172359,-0.52942318634030561,-0.35008867991245174,0.14121350828993534,-0.66176502804552317,0.2795143550043116,0.89071158398011108,0.68101111092388678,0.097040408370806158,-0.95226516747366552,-1.6339709077274469,-0.54733541418639109,-1.7833212261772069,-1.2884501616330759,1.1849992382034353,-0.24327923265615878,1.6637185316123622,-1.0264650021493233,0.12449533556888662,0.12939222857508384,0.52534141550528934,-0.17871040828186929,-0.65611507391782198,0.66474170104475905,-1.5943275828620382,0.068935482875074353,-0.57042741260500207,-0.10974332276140246,-1.5657350892678301,0.091152527984723772,-1.8442298086909505,-0.72332961410025365,1.0690279259252335,-2.3573538488381645,0.6117065895652144,2.374515273064953,-1.7617813051247075,2.6584285713815556,0.51424121584414662,-0.11396885758022914,1.5855501016698634,0.018246476970344438,-0.89120399185013388,-0.99818898414197099,0.8561128218174312,0.2659090517604541,-0.21844780383225171,-1.6565363971882399,1.4647776556594054,0.25736580878017046,1.6062471051552543,-0.18624336745538952,2.116128703806925,-0.52736276106334712,-2.0547815770619726,-1.6794763368585961,0.69136443545520598,-0.60807409476469065,-1.0731170712242075,-0.68874596338537142,0.72213948159120156,0.60239755131655337,0.743631395776296,-0.10002322178677236,-1.6995448008716387,0.72652655578467973,0.20574304430881957,0.00099714369651214552,0.2470907836700626,0.81099407337126306,-0.41232592677155339,-1.373352229424039,-0.12695427637744963,-0.47558812739329509,-0.81475361897996379,-1.0299748785497578,-0.77371037830998679,-0.23078360849836474,0.46278178155987959,0.44596001381456385,0.19013220048867946,-0.30642578527214026,-1.5753342541454258,0.96733125190839431,-0.33213435004125536,0.23292210725546927,-1.5837141197604316,0.81816707658145671,1.4265987017391322,0.2819862562745129,-0.29441404594880854,-0.3448502296433163,-0.37079000410099594,1.1186327958474525,0.31393027470767992,1.1728864225079871,-0.77529818527383298,0.80417198196983486,-0.54515596212577444,0.34630412815030387,-1.1957690736666131,0.6777954663232939,1.3758699941185344,-0.596603321421183,2.34966172537928,0.48650877906859286,-0.42308139487027552,-0.89706717455122698,-2.1795630630222962,0.21498506334683781,1.6366353502760573,-0.74356669185464874,2.8032908014141231,0.13242981753260469,0.10792596759195458,0.33703952546681709,-0.64962587125975868,0.55279028042755618,0.47331677848480941,1.0270288666610694,0.73029307965125878,-1.0098523433231754,-1.6089967352736696,2.2150671906432984,1.1322148873233198,-0.10638186584351457,0.037925245462154734,1.2189012857518224,0.42051102337702989,-0.93488554131483226,0.53382590124606488,-1.6273091954606942,0.24050299128078084,0.43725989395338843,-1.466613815455633,1.7977934294353524,-0.68592860838506409,-0.58194306355496739,0.43207818333048659,0.38970510015625376,-0.69090736914598849,-0.6827210736317546,-1.6392143272153603,-1.017492038373792,-0.49225087644604049,-0.55897322526624804,-0.38505692773745631,1.3240264520646019,0.95491885235026064,-0.27465375782082097,0.14045407452947214,0.58797435142676535,-1.2841105881299826,0.43087429410812955,-1.2648825233697409,1.3357500954140988,1.9477506414026411,-1.1388672150186598,-0.9401711594891845,0.6073567905965761,0.18247443250493398,0.40794956323896181,-0.87807922629698643,-2.6724825836699875,-0.82424255383282785,-0.17918137088253594,-0.63277248173794054,1.1627076807657064,0.90306638993501431,-0.29612020830200447,-0.13184209189436438,0.55277611497721313,-0.0048786284505682618,1.3187418386905043,0.10209854948720663,-0.35769136787150763,-1.9649371327918366,0.98041442327205441,0.13242332877276264,0.51052668669421108,-0.47961746752972378,-0.74743863191744808,0.034045084016290181,0.74383222356452339,0.33324920002351655,-0.25521717442596198,0.55559187204923477,1.1797914999345953,0.055149504261855248,0.42804767213352252,0.25576946349162005,-0.35523496055717474,1.4938486288306929,-0.7791573657390275,1.6302930170026573,-0.51238516086188635,1.2903065576835633,1.3383485192583564,-0.070957723443027851,-0.91283177754038192,-0.14487143207431985,0.61470134889723216,-2.2082292426023571,2.0653828009559438,-0.10561084729171856,0.91376190313384231,1.1963441188836352,-0.17995874225247643,-1.3431204617828518,1.7862948954733844,-0.98268943978567624,-0.28801002644757151,1.1333517126997195,-0.097839715134428296,-1.6417312106382433,0.078541139294635257,-0.63212259866784848,0.38017172989000342,-1.2797468945918304,-0.82278818371564533,1.9848872790302385,-0.78492547492637932,-1.1239985769124075,-0.76997644825685552,-1.119787614183382,-0.12726285803496812,-0.84548833703486515,0.88558855015753335,-0.23556952981417659,0.33383356924240487,-0.28142597639282912,-0.49049795010832214,0.39862097080740566,-0.61557610184426803,-1.7249955301309212,0.73141015646401308,-0.032501143430043157,-1.1162079194009691,-0.37825633774682688,2.0109761605605043,1.2613346679648929,1.7324429857095964,1.4126117668791913,0.96300910384043381,-1.8556035146385996,0.68007227315939034,-1.1738166184180319,1.5737827411379786,0.32204757105877069,0.32168127922548628,1.0279022198794969,-1.4965997620405878,0.28967065763481809,-0.17766656363700259,1.9997381686364413,0.56076096633208095,0.15365430199731914,-2.0311058656512655,-1.1375652815186854,-0.044074462142782676,-1.0629010856493393,0.16115495070237704,2.191124726726946,1.4711432308504921,2.7530907356799861,-0.86118766241007616,-0.7547819304285025,0.066469453200516532,-0.82290065552070935,-0.40514739779472736,-1.5262080868813155,0.84854307004621909,1.6784208892850425,0.29048649439760094,-0.65222748393840813,-1.6635631448027848,0.99166296820685618
-1.8422795091821367,0.88231250458617017,0.26231370426131972,1.2009560291757206,1.6407349064406547,-1.0026406092738904,0.31127934050036604,-0.21988410471517872,-0.94451184956322565,1.1782134549204695,0.0016838706157855153,-1.3688677414868839,-0.40238460000514792,-2.2872406386460371,0.31146417262229248,-0.24128160877295388,1.295912523589571,-0.063987975568036093,-0.33566162978986436,1.0910703532226451,0.49545003583197306,1.2998803154246876,1.3803685436095774,-0.45862208772399154,0.68034479842229634,1.4286841771287495,-0.77118645626689786,0.40125050871767581,-0.61775364936580057,-0.74831961970836713,-0.9820012778045577,-1.065507776232425,0.94511674886034669,-0.71610012795257838,-0.46387572734178628,-2.9549506603324818,1.0568420778310248,-1.312003051593823,-0.046859787967251994,-0.93783739517789322,0.73435992721518051,-2.089865408006236,0.051808256868334693,1.4026720263570729,1.2878392379659074,-0.3223330510402006,-1.5901950488891519,0.51335699159380421,1.4984910708303665,0.55339769717002441,-0.33269705890117518,0.50837454988791442,0.51892272020856156,-0.1380648435376754,2.3683946751932381,-0.55630328907161186,0.95020252236793246,0.0095222973133598544,-3.0080962245920655,-1.9777152203873209,0.091548768900814592,1.3041483754618308,0.27181961522565667,0.1291858785268819,0.91117929255049479,0.058136897637660223,-1.1241909506052303,-0.66929671160222337,0.20166749981373525,-0.13054070843725019,0.82512397300235862,0.53518824870880577,-0.077488212985321547,-0.57259932510208245,0.43147577543592797,-0.26063227455536747,-0.55247519442502291,-1.2410809547600443,-0.9591481943352177,0.7886526177039398,-0.31761065687549966,0.091740876159661089,1.243160662167341,1.8695918366757431,-0.57003362818798253,-0.56069277199547418,-1.1586084158513592,-1.0555814986524186,-0.051680143345189652,0.77922656802170043,1.2701193259599377,0.79683020397240945,-0.93636021323462726,-0.49377026793369683,-0.491909355719863,1.1546071969309362,-0.54574835965914159,-2.2225568629368424,0.43758417876919425,-1.6817136564169115,2.183811757742268,-0.7404803103210017,1.721668824437441,-1.4958885126448422,1.7326827664276605,-1.0104753787326286,2.3008797361646587,-1.3300699451639302,-1.0360695584947586,0.68294960105491698,0.26553327757131301,-1.1447501203346802,-0.6844930814392699,0.0030600308406707145,-0.42267300729129803,-1.0130229206190298,-0.78111728309595152,0.43190337201181894,-0.14753331284748641,3.2769189495002151,-2.3107690408493617,0.85245073454557374,-0.18765929659308428,0.37579788259491664,1.4346990439268208,1.1681747300630789,-0.8365740153619825,-1.1268077876606692,0.53572858670710211,0.074063829342712495,0.073691697360936836,0.7711671760775699,-0.028303028460204174,0.97297666864287735,0.33771834672598788,0.036261676826413847,-0.39716256860272892,0.85956181295141976,-0.47263739349741513,1.9719389782852972,-0.65172571082088893,-0.69181020842655983,-0.78059734685869098,-0.50302403199129497,1.8204377215449397,0.49940643783985189,-1.8915477535075154,2.543655527609967,-0.34261902534397792,-0.64462602580177508,1.2713120004460801,0.79851018321422151,-0.24538721859791635,0.38021627910320904,0.81567995374320468,-1.5009576747772724,-0.5643508412279612,2.2366818231005472,-0.55079896574924125,-0.31682055796817227,0.63044281731824936,-1.2400405780070791,0.99476184687025448,-2.1736180593598213,0.95488311707153306,0.55267125433393749,1.3163588022549513,-1.7789625935680031,-0.15624630455328375,0.68028804234036377,-0.29187066566229253,-0.34144130117901172,-0.4760602395542447,1.1278938921418351,0.98392353584666237,1.1248807135398493,-0.26701809193397474,-0.84226927077987401,0.28128279874520029,-0.30178544542605973,-0.31814276346164078,0.22024210038224001,0.78199265873216672,0.27184374943617257,2.9111241022812964,-2.3575223136451884,-0.087746247716728898,-0.4336875897959479,0.53164389973387394,-0.42322204664559249,1.3412883230146235,0.52488151028616192,0.8535538437769673,-1.4070850618132695,-0.67906489116343582,-0.074094180358488387,-0.82608451625903989,-0.056512166625984732,-0.45504404809137677,0.80138248990000638,-1.478617889152239,-0.33242137029049124,-0.84696523596663531,-0.037760808600745405,0.3992424574243767,0.24400187827457739,-0.91546348344257844,-0.26568039678199157,-0.70926773745511296,-1.3214160591694062,-0.97214426469968807,0.04678573578125611,0.45467289607862538,1.2602715755309577,1.8641486865905592,0.36153057449018405,-0.12852558792828478,-0.96236017092377479,0.43549112198622897,0.79735196143948173,1.0216463624921615,-0.68131965821327367,-0.55900462430334596,0.42838334847529391,-0.84273375673159789,-0.95264961001927373,0.42948676607443254,-1.394286002953331,0.11419009249687331,-0.72489665236175649,1.0488887157701168,-1.8564867538161194,1.2155127481902959,-0.92382645171338029,1.6764399333075422,-1.7023927730593689,1.0495481563086653,0.21428773625270056,-1.4433286228866407,1.5204079507110455,-0.61011222629274375,1.0376417189415763,0.52878049467479971,-1.4161449336133514,-0.21070655314035652,-1.979406303680791,0.43459010744486604,-0.16625033747875592,0.83547870655819767,1.1825355111954348,-1.1350928911525844,1.8139515702529678,0.11056789615279392,0.89219677366608074,0.85027476627431575,0.19142987050249552,0.81329246096868013,0.77427896532990659,-0.40755912137184619,0.40661533555430585,1.5799880112479547,-0.71284145748642702,0.9660829613678299,1.692273968292282,-0.15125902410204892,-0.39372027544569776,-0.7610024617425154,-0.35398934803073101,0.64910182762162871,0.96686067045375446,-0.76555879230273138,0.11114696268446032,0.10775215780597887,-2.233013405626683,-0.61185646157303997,-0.42063384209563465,0.73665329033968763,-2.4967266039913274,2.2629701286465824,-0.98724261536415137,1.9738970211088107,-0.053360487386985157,0.10841121000200478,-1.4424868113069518,-0.38598339149338184,0.11359392321085751,1.4195285482797226,-1.9547884273127019,0.83937528983444554,1.279737984161766,0.88444465271015782,-0.63728673002922698,-0.44613056403769485,0.30023325863067662,-1.522266061063051,0.71173118012185477,0.27989929276987807,-1.993782975777729,-0.19225469084695965,0.45977075236497944,0.099101265416425569,-0.30237468385965272,0.89731426464045683,-0.41452371807337307,0.6058655144039905,0.32293670118909434,-0.57474476492314064,-0.88289073980480393,0.47010576735686338,-0.48181116837944543,-1.3470649715266809,1.0542746600120998,0.70840197532642224,-0.018264439108640028,0.17628564758832554,-1.6576378243931438,0.73556935049962591,0.14440397754289558,-0.47147502766968746,0.66233864290051903,-0.12407663918114736,-1.2309422918693007,-1.3926486654480139,-0.26117101161117351,-0.26917823392720142,0.59119191511271185,-0.45613796575612137,0.52715495220166242,-0.86630330082332863,-1.012387104037711,1.5779445501534006,-0.91446471786044559,0.63998536965930042,-0.35586774772192681,-0.35005821171681045,-1.0369241267345077,0.89340924749568096,1.884674863055011,-2.974699254974817,1.7897467272641643,0.11127488621933226,-2.2635771678514405,-0.34054321746113564,-1.109155379278753,-0.53404143654722869,1.0014259912237859,-0.34590138911273516,1.036401401660578,0.81444025700598577,-0.5168117604609187,-0.19973351175464285,-0.56262289837214474,0.72623231698947521,0.10791073412977062,0.43271335236038416,-1.0990027625017633,0.42931060634968826,1.2829019085088573,0.76588458143803739,-0.016106164509852812,0.81845534149336707,-0.52012224464601042,2.9011389396646492,0.72106633509005835,1.1076819254371613,-0.1312940309262578,1.2078179572177092,-0.46611648316408,0.91607847353381666,0.65457412084123623,1.9541724842632715,0.39193080085494353,0.013831463669598884,-1.8360703032783101,1.4862635814347338,2.3621133993644476,-0.53919546093911053,-0.69285350522482203,-1.6699188179773503,0.36906577645588706,-0.021839524236697636,1.5735506885174568,-0.044691348296315422,-1.2036507996907435,-0.25220540096122773,-0.07883421215645417,-1.2853454220399843,-1.3992634254659286,1.1902625805181599,1.0009421735961288,-0.55366899675021208,-0.7270924190356215,1.6091701743128641,0.52948280023380867,-0.6201840214996075,-1.4735938389226944,0.47898920637719522,-0.71379781696603184,1.0130113714691773,-0.52410435607500783,0.38093130861128044,-0.86030303347120785,1.2918966504398817,-1.534926574861476,-0.46639894166356632,0.29801458525301999,-0.047404293197600048,0.4917750006482034,-0.34701948112400366,-0.26897930015205318,-1.3819646042086895,0.30453876085049336,-0.61684135268922891,-0.29890946192015105,0.18537497283204102,0.13091821164947079,-0.19458590944243423,1.1678770713072613,-0.1604174607702985,0.74486360650507244,0.56557409379087475,1.228074514318291,-0.018566814673994007,0.43354531707957095,1.0507523269228647,-0.17652769603863314,0.5910115816156859,-0.81805563908152779,-1.1686658270693724,-0.35832885565846212,-0.32221961634154495,0.66162682535406214,0.85138358893267063,-0.19271186979464991,-0.58810575584983871,0.063884761304843066,2.4971914991091184,0.75665477488171262,-0.79111919897167526,0.76941877419203197,-0.77347382671961595,-0.28533033336697405,1.1354466847721953,-0.3192529096442554,0.64795105345827719,-0.99274727826473586,0.54363565835762806,0.51901150731813461,0.037349775333627142,-0.60571133118173959,0.67642185989369019,0.23929452676434046,-0.25679031092782467,0.050926275806650073,-0.45192618504454657,-0.13281014525784501,-0.073935460973692135,0.35412106183185782,-0.70117833410749919,1.4133355038628264,0.30085812501792703,0.13683792638789777,-1.2896288582622777,1.5400862442123961,0.46699718395233658,-0.93207055492376589,-2.9120820268022527,0.24474965535236265,0.761963917872306,-1.2549776349679391,-1.0751594708061618,-0.96732602466701545,0.76406759637056265,-0.007249544979211822,-0.239974709591529,-1.9945059152124915,-0.60635439521177159,0.18283458999004065,-1.9226094067407118,-1.4613422727730356,1.4594093002749517,0.77548140845847502,-1.4118254699397046,0.51086496709852969,-1.22397983811865,1.1124943791473616,-0.030673656552617334,-2.4633324679104582,-2.1497882967031776,1.7550043913478461,0.59711739159896371,0.6290805260150355,0.19867975189141893,2.2809222853133067,0.91931477460270616,0.56253957902349627,-1.2404737598735969,0.068634038528650423,-1.9393429815473233,-2.1012059352891934
-0.99356467818848127,-0.84695462293463908,1.4034355502220419,-0.54610054232060357,0.96295801811328841,-0.45431064047248909,-2.4563451251099364,0.81035508579469351,1.1057829373500532,1.5184223592492165,-0.66515873312332774,1.7691313098499155,0.71222331577309206,-0.019696007735588383,0.3084747039300284,0.77851982392205754,0.52961577931248227,-1.1377910697135711,-0.94669392490233972,0.35110477817719521,-0.991907944922369,1.4705611464504504,-0.13267337933932372,1.3071812939232719,-0.8274264021812241,1.6588890224302804,0.6711382322420516,0.50146548782286415,0.83213212688898419,-0.24638114947943357,-1.4175459853737316,-2.9153873849724574,0.76417369884142294,-1.750072609759594,-0.19355037130216826,1.2074531566016744,0.89662035084992342,1.0532703219871022,1.0454815634626149,-1.2855504733999639,-1.3979753286338381,1.1302035030511297,0.27986448983356432,-0.72000101458558008,0.72992685737782581,-1.5074407635156051,0.53191177281312918,0.3732915844753591,0.50600637176463681,0.23194253641236365,0.44933185945787119,0.50360102824211816,0.42475896996837809,0.29617566364364828,0.55892070160773921,-0.015757792870356956,2.3518925524323229,0.33179592824427179,0.90046237440916999,-1.0946432185892667,1.5231694086567358,0.24021753509823227,-1.5480761989531542,-0.14367847642307627,-1.8404733654700896,1.287554571657807,-0.35971058618334001,1.8026334580477164,-0.53011344320753995,-1.5217826209877907,-0.3893525601425924,-0.91532371461931661,-0.41260403476654284,-0.15339937897398853,0.60872703585716414,-1.1666635991015788,-0.17929591373058765,1.8838543439967483,-0.96194180039661992,-1.3712908602277201,2.3729672679287623,0.71508540445360169,1.5072526013925951,0.66526428871640797,-0.6224259263746611,0.41313204159442002,1.0557688481567329,-0.30781029396133314,0.24932573266356792,-1.2622097402242185,-0.58128386594458104,-0.75120872202720823,-0.35903098725163773,-0.07785921720274766,-0.94676140124392461,0.14646227689236407,-0.54623564657978829,-0.34702873567111753,1.2884410618595612,-1.1868429958707272,-0.38470595876713909,0.84647322440125472,-1.2179405567795134,-2.4431373865956312,-0.19255802823281565,0.59261290424466406,0.20330872115254175,0.58219926729051685,-1.4459985683086618,0.2061789373501102,-0.77290025551061026,0.74903863559251571,0.34734830195469152,0.72378657498884258,-0.60765643276411352,-0.83609283414682123,0.75722883357576698,1.4079990718217577,-0.42166893973281194,0.40084364604665434,0.64698739865499721,0.34538088547555096,-0.79681738675320635,1.0705612331071441,-0.67001224369250567,2.1337687845096283,-0.4456469598943113,-0.6314251641344184,-0.25743029606221046,-0.038385656915198081,-0.26379916246240481,0.73046333287823362,1.2076081323381729,1.4037556719528219,1.1023183168912827,-0.56938155242028876,-0.3781813318883801,-0.39686794704020073,-0.073708590051319203,-0.54933827278060499,1.4932816254294445,0.032509967640978368,-0.54968377592713757,0.50629631234334893,0.59661227662906302,-0.98708572391032945,-0.38496358588925167,-1.1169625834485406,-1.198965184710965,0.13494288169150406,-1.5404975031021488,-0.10599689207521518,0.4479537156042771,-0.15703187427426107,-1.2626264760764263,0.46421628398037945,-1.1337393562600486,0.30790462951213898,-1.8796911906173432,-0.30063391719116017,-0.86738207570788495,-0.83468171815653924,-0.20913652799409238,0.0091015095920825139,1.0596855906291303,-0.32797525806878058,0.1556082736832668,1.5219943978688715,1.8450099418872332,0.057014026285428135,0.20395328644218289,0.93692491125634836,1.2995977030395689,0.47732278113780274,0.68020277690947495,2.1978147790665656,-1.0638246626043355,1.1518356559385678,-0.4607129789046796,-0.11877562124015259,-0.92122501338752205,1.8564415932737557,-0.2572643866799873,0.95205496920893173,-0.55721524622697294,-0.11771129290060069,0.27232119779457736,-0.15208964328954816,2.7114923215081119,0.60560885634025186,-0.07770099816865092,0.15401440018541229,-0.042028687476949392,-0.098243359274665903,-0.74821900455175772,1.4966282645570734,-2.2300041697889106,-0.0041720076111665871,0.95075638072215485,-2.7250494459643977,0.51583668086701251,0.71315199962793729,-0.86332886183157687,1.9352814855465823,0.3769740251970955,-0.26819587652981369,-0.74415737677168226,0.7464051989805659,-0.33715254914281856,0.10503005635247878,-1.1574960912637273,-0.79880224207805584,-0.28264470087031129,-1.0241659216924062,0.78320788320092938,-0.18040495245121388,2.1278764805803023,-1.0315969895254393,0.9818307828033469,0.51660486420842788,-1.2599242558041155,0.2170313608418791,-0.35907653217726421,0.63531420683491324,-0.55268807084322225,-1.2882448613751274,-0.37076380712030271,-0.69786042651776969,0.45925206570473409,0.47782396472264788,-3.9198519034469284,-1.725582831985534,-0.68985948764314453,-0.40564001269053568,-1.0273642451515885,0.51376052087605062,0.63762514717560081,1.3225509221431815,1.5075191039562545,1.8471600139554996,0.30556704958733594,1.5083263196172898,0.60711888176640638,0.49578730880088012,-1.8379578968838302,0.81932803424269174,-0.36182853321819325,-0.4913572080069295,0.0571333847860594,-1.1116534752633338,0.53148836521225418,-0.57670456180703367,0.68161350371604268,-1.0091259164364814,-0.33901365757682467,1.7424089954862334,-0.015303645561299485,0.73205424060216184,-0.12886352267590243,0.47594340928580131,0.58480563090101834,-1.0157882508912419,-1.5722962395413889,-0.19779453792216242,0.26399590310888332,1.2690790940489185,0.17195595659477272,-0.30116478582018552,-0.89664660049077782,0.51743810751168084,-0.36608038033321216,0.0071381838651216629,0.019464335804265848,-0.11294809125275823,-0.58486032261795062,1.5079440361896088,-1.3830038328142533,0.28847977819425902,-0.97202383952692673,-0.52549404424781165,0.42848245651676553,0.81228129792283854,1.2832923520592741,1.224033962449657,2.2987952265832927,0.64002757097625307,1.5395548606917089,0.80073596694643545,1.0215900655230152,-0.56547652867959175,0.12760909895493522,-0.89072391237553872,2.3379332428425474,1.2773270346439436,1.0553889432633377,-0.54684918172889774,0.64552911579934602,1.0047851651796889,0.77492633190986726,0.27036406510045929,-2.6498906954440078,2.5214998812845115,1.0940385571259128,-0.91041079756608456,0.65972425804408741,-1.5567701933241305,0.9929227722913645,-0.27720039293556487,0.56921980167521757,0.057180424478717198,-0.53386573242789293,0.70157592160631654,-1.0898174518839425,-1.3599827012594612,-0.15634614604293756,-0.74943071547367757,-1.3254872229009826,2.3274844624152089,1.6612624449617865,0.40645228855612608,-0.59156869009594881,-0.13406837800612234,-1.4761925419720308,1.0264161397245248,0.41529614463544312,2.1529054558096714,-0.93856814650441012,0.14970191207064304,-0.94304067395761437,-1.8272822662312396,-0.38476536692897628,-0.56573864380932215,0.09813623910029165,1.4030358252132085,1.2098154440670292,0.31681666840180983,-2.3528211107699843,1.5000857663104996,-0.58007991911054213,0.327827730662059,-0.14130005148093391,-0.77578027455318088,0.44535377878322546,-1.5741373320822316,-0.3711191122238508,-0.59921941134078116,1.0480689866821302,0.05123312139517941,0.0036803131183034805,-1.0085068503595946,-1.3126626182725454,-0.44314317260312575,-1.0363295086026392,-0.76535525895484235,0.58056461807520443,0.39093547494236058,-0.38384606246642988,-0.21897658729809485,-0.87684449589706026,-0.37191979670887548,-0.74792494310947244,1.708098488461038,-0.22496317611592279,-2.1526784548115154,3.0419474846881629,0.6409070385213651,0.088609890580916173,-0.77290496798728359,0.84459868073645905,0.47289855355340232,0.44537650270140794,2.8229015782720057,0.15115292768736499,0.46605941797322997,0.231765534843763,-0.96071296704579734,-0.30278409935399964,-0.42741385915215158,0.7628086027669333,-0.68410891395612528,-1.4042996565911969,-1.5596009384302292,0.89335367778639396,1.3286055854422985,0.10041556181091142,-2.1043501071522792,-0.59000462806364173,0.66506921528522145,-0.33970915932024082,0.53126270915816365,-0.34450745618331985,-1.3106701074951608,2.0415037436576933,-0.98803582929884215,0.32865259955598608,0.29518232139149553,-0.12510038903287565,1.6845464761502409,0.29714212359197278,1.4947340851255582,0.15762206343496121,-0.079081775947477478,-0.42702623963083353,0.11472463457490978,-0.33479684267323367,-0.2560669693303893,1.5395022449315527,-1.4072561457695811,-0.65713412676558081,-0.25985902311599862,-0.037536896252840478,1.8124291493254767,-0.016836506657325199,0.77759763347890942,0.92646491382330753,0.62913091537665145,-1.0917605479812638,-0.29074788742254537,-1.2137406498333696,-0.27947618889274811,0.32273628744971206,-0.070701764905338194,0.29119374162471057,1.4024251687050591,-1.058433883956293,-1.1428488353378923,-0.67133981111579799,0.58264158991033876,-0.70560168356488751,-0.40767987296920527,0.48497626008522182,-0.19342805296108651,-0.51996447009447067,0.34816583715742128,0.051968915178570843,-0.96207356913911857,-1.1941476162810263,0.13472438219822497,-0.021859457789232043,0.34469701949958964,1.1732143857234447,-0.19880134023102516,0.82957046027526304,1.3628919579312495,0.57906301312128172,-0.38513892951335738,-0.10723494930791655,-1.1649427119260591,0.44284966787026542,0.58058708278867399,0.42869183316351145,0.76328585335252352,1.1394040218395436,-0.39982994134441679,-0.41480189328886613,1.8856348651669985,-0.31071723764112852,-0.08580534274850736,-0.3405534568403385,0.08355645237748377,-0.82082461610495272,-1.076734713427026,-0.52659082560606529,-1.0166407177622927,-0.10011579876168072,-1.1360287017389872,0.83292692121143863,-0.37978393914808051,0.73507716761179376,-0.65952848178099122,-0.45742803702582835,2.079711651295991,1.5091443511417726,-0.23806260425239095,0.23809390352432627,0.55446958573971283,-2.8130077780700673,-0.24239999302772347,-0.59288210771815197,-1.2068350223866604,-0.14613360465227393,-0.96073693125037352,-1.3762673123075582,-1.0338900924822965,-0.26395734952373207,1.7393516256641119,-1.873579331788596,0.7550118064610718,0.78456635219940518,-1.1452196240550701,0.94733012299791808,1.0207438655251688,-1.2410619342619655,0.80761512862389739,0.33394741184282883,-0.21439666661456067,-0.030016022707940623,-2.3822668748632281,1.2167616778815051,-0.15811473408192059
-0.78018342996319157,0.34944713863924498,0.55036779786640089,1.1360209631922431,-1.5888656005058757,1.8391559928854617,-0.9119414203632582,2.1437102037282445,-1.3004155210341972,2.02657887100604,1.2356721922219116,0.17788643650706687,0.33370119341978782,-0.62314700841147685,1.353661041373696,1.3755969653287596,-1.2407491374302695,0.17141755303330061,-1.4069673561324392,-0.56317044198302635,0.69713373731220485,-0.96420556119532308,0.93048014005493762,-0.97712443675754601,1.0451782044131814,2.6133823457480627,1.1011734256079322,-0.15995241335828497,-1.5776024965607376,0.050211663385478111,0.21989803883753645,-0.066915204121566194,-1.3549713317285059,-0.20885301851755914,0.31577637805304876,0.48308635361389268,1.7187501288385243,-2.9675124199106535,1.2553698269972438,-1.865347657881312,-1.0654815279081504,0.35719317449733479,0.84758488347923033,-0.084823045462901356,-1.5574947362565008,-0.99422261110409438,0.82867565065479332,-0.30374708298520808,-0.44303998380888238,1.8378629726665661,-0.58393665118016014,0.024811472135471052,-2.2912639110727984,1.9503820195293486,0.83418450557170021,0.0033059166562425129,-0.33319179910795338,-0.59791624235669893,-0.2748220087149405,0.61196408529695723,-1.6094657925886859,-1.2223520939640828,-0.29568113155027576,0.60482509514148997,1.0857837507020958,1.2944134825149556,-0.8163959694453331,-0.43250924464936052,0.6335964302091136,-0.12284048994753391,1.5238517405676031,-0.068301720984709546,-0.88413871169401426,1.3285869682758145,1.0968961539010567,0.23000137263083897,0.82687570795217402,-0.58611821843954903,0.5238698605856611,-0.87605496245400238,0.58637872948369718,0.68718606198810994,1.3273311381567481,1.1917756116767588,-0.79385673995367068,-0.35096537755615603,-0.50717217491565247,0.48938745956431035,0.39553184580132239,0.27945722824123931,-0.073109416719223566,-0.15371940676167262,0.35676342637153224,-0.29929700152870908,0.039635754171860237,-1.4293474315394317,0.76542286928586467,0.99233069002254026,0.43641380844382938,0.44973290316739872,-1.8795278125035089,-0.49278990454793981,0.091379407575119906,-0.43839702307129397,-0.40110340843363623,0.062627281249405489,-1.5543051479205225,-0.2503188385561893,-0.41276338137907614,-0.1826911725797653,1.1260971249759182,-0.74022633892404721,-1.615066044247925,-1.5288598524957255,1.6586889230618485,2.2389488082030247,0.94301468984520387,-0.42666350514219076,-0.77588851156871841,-0.50457810498298605,-0.49408307755329856,0.77373910862783657,-1.9752267978760922,-0.88293187190598255,0.53987336453237367,-0.01850571358830079,-1.1362818924749796,-0.37407543860445008,-0.13875783761310573,1.5119110234432893,-1.4885045270344435,1.779922796982736,1.9296354162382114,0.1064178568032093,0.22401961478479263,0.66573037203466523,-0.023770599994620129,-0.46267959495436017,1.7104004872455101,-0.35805393775348227,-1.0756652309094183,-2.481800231165904,-0.79823011608508387,-0.065007003605794186,0.91905343765960679,-0.29003586524031216,-0.059546601461411275,-1.9200615204682467,0.18421045477436238,1.0670631316997061,0.43634799171283245,2.8250909047831194,0.47929211645738617,1.2194899713158596,-0.90754014709081199,-0.47186344751619352,0.41522566183348858,-0.91240706464607957,0.13162562390374036,-0.57932280522690416,-1.0591489106730207,-0.98078320442140554,0.44301136354514664,-2.0267891635794215,-0.30909737415050115,-0.18086663743952766,0.64257607203853984,1.3493022576126188,2.0349580981030067,0.88076431111087272,-0.28727789011071203,1.5078120894386222,2.4249970446795368,2.3124333668566539,3.0961212817984545,1.1515959443304555,2.4868838835979172,-1.0387288465458884,-0.082139347183791817,-0.25063758579325451,0.2827027633302463,0.27059508949572642,0.80676427189591704,-2.2316100197212903,-0.16411784872743221,0.96444038942446231,-0.6156780147769717,-2.0048164510095865,1.2478120143957074,1.4355993554068991,-1.0394488714505046,1.962831969172649,-1.2065105478113187,-1.2009630454088787,0.35751222299046004,-1.6566330091484147,1.0219052433260558,0.75506126005628882,0.51229219838617257,2.0332785713741437,2.3942895194673608,0.12737475773390261,-0.89265188909370707,-0.92855085692091344,0.34953840249505763,1.1489212577358072,0.91169491348997522,-1.6721053295985502,1.5915822346715747,1.3501910177578136,0.38562344148902067,1.6232759815866584,1.0719976329279983,1.1959541841928976,0.11442305970262626,-0.53300013271139823,-1.4607401339398944,1.5472231893759547,1.420332717855552,0.045033554450660755,0.54216501809524797,0.75617095685372582,-1.0431022592638608,0.067713308500084779,-1.6544360150618784,-0.60512817880100334,2.565596802459345,-0.65714567617175423,0.25922667951385192,1.1088511655341453,0.44261868886747524,0.023819661587388043,0.10230140995924608,-1.145021629082196,1.2208721143836394,-0.5322012675176363,-1.1227623843619992,0.34878137149097005,2.2308758278257796,-0.71760565012758926,0.70624598350890677,0.17169783967628088,1.2505343857883293,0.92322188930226223,-0.43486533787150849,-0.93840305211937969,0.52548284912573429,-0.26545440625124,-0.75559333301932674,0.18124066432447611,-0.7461255275864529,-1.8387167099704558,-1.9273125272497091,0.18081430438440965,1.1392935664638997,1.0530702181853764,1.1378429424247281,1.1677879508641085,1.7217411444859807,0.78199455217704139,-1.3603084716079423,-0.23947731252136312,1.612215436471037,-1.686350756448616,1.3382690443791772,-0.52981800775421628,-1.1429171336508797,0.71747845660132437,0.36699232487570638,1.2602365345338589,0.57611255927283334,-0.43586074442655515,0.31698713898997988,-0.28981490531310461,-0.04541338273793525,-1.0621653741552337,-1.2531745043319349,-0.89996086944574394,-1.5176076578713293,-2.0980344782029929,-0.9813229229032856,-0.064517627688701396,-0.46761128739938307,0.78702469336661196,-0.33187505561670394,0.22557915229068443,-2.4860627067128269,1.3348079785879043,-0.30474404171600344,0.48985934814840854,-1.1276990241341105,-0.90669502711045658,0.37853881841255654,-0.91034122346096791,-0.49634979540865309,0.88274103938970683,1.136613129104546,-0.38209461560627317,2.4308050307003266,-1.0831068487213216,2.2096497816198184,0.094214905298999729,1.2283534006000485,0.74853667245015787,0.89982961870045386,1.127753529158781,1.5024299420080403,-0.56559242765737383,-0.37017302294282933,-0.76121523914007971,1.2850807022282593,-1.5536335031296371,0.23899994853800466,-0.55002598388168045,0.75548022048394015,-2.1276922339405564,-1.000190330606155,0.42487683095422524,0.40768192143898829,-0.20625176791426242,0.65075700625323318,0.53841050665365264,-1.4297084574278212,0.088738766865035734,0.78171633120464179,1.3368326203120728,-0.45332174279613152,0.42724977607620157,1.2431109153499071,-0.83441972120614527,0.3065329056627128,0.34110945729561337,-0.36142224652123855,1.5798831285420856,1.3726629246354649,1.5902461616378896,-0.015872382616812102,0.01958641567809917,-2.5100789254133189,0.36011352189087725,0.86564038782975106,-0.19781503422800917,-1.1037157581899364,1.3625173050855137,1.2671144746724463,0.61164691087201473,-0.56715979602097932,-0.76043086608874266,0.17468990286466995,1.097435989378599,0.79042815503067998,-0.28235864273014383,0.18180816471130837,1.7298594615705369,-0.58257155826470031,-2.0590436862108015,0.42075954476839711,-0.68148868423640763,-1.3295207657433938,-0.68901719924433258,-0.85770677518204197,1.3196772407567965,0.65117115239052092,-1.3125397742184117,1.3848839790669563,0.64140686134275082,-0.15172265672131582,-0.5037545805954452,-0.90290180417746169,-0.66351086568485473,2.7136562822872401,0.05754003978423012,-1.1312221319530089,-0.28164858767866952,-1.2030214970247062,-0.99536237595280386,1.7571814076246304,1.2856478011655672,0.059713335641767708,-0.26398380640996916,0.28655592337580887,0.66946020963749242,-0.59922023831915683,0.26781748326232074,0.85641776845018214,0.50908513365548647,0.2180718755804332,-2.5563142412125455,-1.209339655279482,-1.1307760128196993,-1.5419692375970835,-0.80503222236182803,1.2416235669473084,-0.090832443038987201,-0.088531238459933562,-0.54961825000663245,-1.0940641823429786,-0.17221210519845409,0.26486753161663501,1.6233140598136397,0.10311599788047188,-0.90504000289288222,-0.052867720297002735,0.025256377398200594,-0.80959339510427153,-0.0019302590185923804,-0.44318921030313774,1.4555934802108368,1.3053534100665374,0.31217626990636937,0.50343226381311235,0.5229958535407967,-0.3034814341346973,2.3868204858265618,-0.96962669975532845,0.2893188828188461,-0.40390699647994904,-0.56971244077349881,0.21040586191852967,0.44431310503433658,0.62189223465600396,0.75674632816379217,-0.60417214278864628,-0.56863839484128531,0.77688143884330874,-1.1035377769341079,0.85461363587719197,0.27747294242708537,0.6186368466019303,-0.23057647772923912,1.0137149061365043,1.6615411227949488,-0.4724580654390369,1.8305008835489611,-0.45425234569596401,0.26256306869195617,-0.28632221646367845,0.83671934269842341,0.087288913496064574,-0.39487254990107939,1.0180972188256714,-0.71487903342129966,-0.76014318456147323,1.3393860728550084,-0.25333525204962098,0.41394721606698903,1.1895442799124945,1.6288244531906253,0.68460391712789592,0.27624324204985012,-0.37649000623011086,0.87987893305945297,-0.21014572205598328,-0.30031384210357276,-0.014816529605416505,1.5819069248588888,-0.39820105117083276,0.79381971000687312,-0.49232943608979329,1.5889027868932597,-0.022969572405252409,-0.068494942889531618,-0.5069304960428096,-1.1610280331278804,0.45033618728340302,1.2945399978815795,1.100355939607784,-0.44683498168894542,-1.1202001683032423,0.37433951693149997,-0.31423120044257324,0.080532654318007518,-0.87512833060384454,0.36296273151297148,0.48699609571826086,-0.42012558291808705,1.0981636046743743,2.4522137672497997,0.98362912343713149,-0.29247025415638755,0.58394959611577779,-1.5811018787580498,-0.18391374674001046,0.10440444541025042,0.1249463004958194,-0.13839789412015466,-0.90558528838656394,0.5972650545088668,-0.57512868474586654,-0.29012021569011898,-0.43646417073377974,0.64050430624378296,-1.3761372800290048,-0.49382921984414374,-0.83915270741879999,-0.87114346521322261,1.0606398877505028,1.0099415132609744,2.4592189100676132,1.3780302508910469
0.76923326740843534,-0.13367675563349307,-0.75702089072916523,1.0768514110973035,-1.622187791406253,0.56867922017758687,-0.28918620525427235,-2.4604980954342133,0.20946732414563757,0.12868841328110794,-0.046938710615869329,0.4208798563092308,0.6893540542562796,-0.91636383288017353,-1.2318766089447757,-0.61264047814513412,-0.00029838566211363651,0.17223181801100029,-2.6250189838034972,1.1064373924539386,-0.46584744049510274,-0.67127687840949113,-0.34201401447873797,-0.36381358652742823,-0.5606931101294893,0.025836805620184092,-1.3248408598561583,1.1088688210414936,-0.50394213190512194,0.57015561992465802,-0.22218338905979026,0.0081058745805208995,2.1045219231567001,0.93771110285525894,0.21598182675270952,0.10151133174193941,-0.52321738629549897,0.4690602523624201,1.0061566914608917,-0.1763486430530625,-0.48418412101599784,0.55386363288245266,1.5234866821150199,1.1763454820495296,1.754340600817202,0.58731570080461182,0.20484869324296995,-0.056179898708001427,0.14951584420575809,0.1049330646629292,0.3405133659618354,-0.4938845387742673,-0.79726559143122566,2.6822020800968374,-0.45732827892682359,-1.1494739487129164,-0.54046830496544618,-0.41371487814704871,-1.1672675584894814,0.16928586411975402,0.31443031646472819,0.0046015822078099263,-2.5833271259916675,-0.55675102261626408,-0.14125519953021123,0.37877140252479141,-0.093457276979913545,0.0053076675446872001,0.94046568270071285,0.93053608735013227,0.35015161292804137,-0.50792812376070995,2.8758155068520761,1.3757111870310597,0.60935349736513222,-1.0044827964193026,1.0548803521509633,-1.5147686912196985,-0.14327822450246028,0.30954490116147759,0.34210599073956144,0.5552267504909808,0.22502865676536046,-0.2932475990808161,0.28648821139436687,0.39880103714780796,0.99703395412598561,0.97912050611651869,1.265150916810593,-0.1483924969518369,0.91645896493668655,-0.16074362559153765,0.40869691373442468,0.44056781066487827,0.40235501818460673,-0.51019556751834994,1.1516801153146357,0.60894047756294201,-0.17719181291811686,-0.026676554446210726,0.33153951203947957,0.68334332527674702,1.6952229879950116,0.59996885111760168,-0.45456926010547499,-0.28540091485502805,-1.7719731194193735,0.178141579001038,-0.39294110990440273,-0.39702223419500793,1.2564359980101527,-0.81136622771699107,-0.61126250498908064,-1.2092137899485278,1.2974029745716753,0.79665452298392858,-0.72869012013952805,-0.064004480320335649,0.80594510909499695,1.9586973126127822,-1.4060060586468364,1.7211052054195823,0.47093733353374062,1.2576726899965205,-0.18536531110130813,0.99423199452198119,-0.78118231545123173,-1.0383136078075756,0.26752878652865902,0.055311028813619462,2.2151227599160506,2.7698897425601761,0.67461597992036326,0.36721140555454745,0.20585297344544218,-1.6675028344487171,0.74408589659726299,-1.7714166893709684,-0.090286230388133284,1.582083765974033,-0.91913214979108193,-1.875554590187682,0.34323303241624031,-0.58795839856591892,-1.1994110280324271,-0.49329721444447761,-2.1193268400644532,1.6628120125956178,-0.28352217071252173,-0.048608509064898102,-1.605526622345951,-0.53939368293560774,-0.42648885009777598,1.8467946927701933,0.78514322768065004,-1.2954353411797446,2.3670244120137749,0.42297334153163441,0.84135537593659981,2.0600754566866111,1.445691071916692,-1.107156232409332,-0.86420358661319363,-0.23927334509008938,-0.22203649197451267,0.20362467749771043,0.44757203740084467,0.60190712286374726,1.9404445485700934,0.17507030023916029,-0.11263653487084935,1.9344466240434788,1.2716011179000397,-0.17978447103641221,1.0052006445631922,1.5170135095115433,0.17808429439322399,-1.9712196524250321,-1.3160031494231654,-1.7027130920851754,-2.6604694289698543,0.54466825850264078,-0.056507307919014559,0.073089034769381944,-0.75836771697679894,1.1777630622928483,1.2853494913665211,-0.39052307311656348,1.1357112022511497,0.23149512066870467,-1.4536814503307731,0.39911136422466087,-1.3954428711877349,-1.5028184827070465,-0.67704463198739462,-0.52223607710560405,1.2466593113593543,-1.0684449341328759,-0.94865774153445404,-0.57869201959223249,0.020316750132653248,-1.7414438397948786,-1.3222826607554361,-0.53249034782859117,1.8511172381485466,-0.87249133567840542,0.35888749921031771,0.083558107746191337,-0.7466510265483276,1.0235788975070963,0.70977531043431685,0.61544886141974531,-0.039183388317990703,0.66509532328893728,-0.62450633802507682,1.3240770689080021,1.7325837539746989,2.0487907505800433,-1.2088543596845513,1.7810426774845747,-1.4490483802270258,0.9523309039247233,0.40710066061288602,1.2772311848664186,-0.69604373135533137,-1.3576831380084982,-1.0517165336362866,0.25457874211783982,0.65806561197913971,-1.1424202864009925,-0.041383469133766178,0.5718965586583713,-0.49664436146260521,0.76410581557769552,0.79188943769634323,0.24933481256460388,-0.80216366049889065,0.60997291003137399,-0.53921552565201969,-0.28774235459691533,-0.15488779114480264,-1.6385432196860363,2.0829018023778909,2.1271999465428602,-0.24569189032265629,0.12273035123061039,-1.0193859451385121,0.035162761083499167,-1.4491740337141075,0.089715513617309214,-0.16682574324787647,-1.0501247408944843,-0.058428945845385459,-0.68674677832044806,-0.41311392046679984,0.25025834011536735,-0.59332482112615559,0.8877157108422441,0.97527391284340137,0.82578182895286878,0.075672350254836762,0.93807527540362678,2.3975865288453897,-0.10502074157349973,-0.5638414546154199,1.0581837532494955,-0.21972935817125669,1.116758801330173,-0.56547680819404456,-1.0361945958741812,0.44766257935954173,-0.87840277056420257,0.093563091442680255,2.8279139097959112,-0.28522994588527967,-1.5465682747672238,-0.38891136445443225,-0.4593689971879118,-1.3628781608193496,0.14784194720073196,-0.41620641576339612,-1.9107887259102987,-0.89160590234701953,0.43385864672972019,-0.23091105199227266,-0.27576096205115364,0.63770866489842126,-1.8351188961663691,0.10570049488894909,0.95613483219126771,0.2711968032989322,-0.28409190232516135,-0.44701373699232028,-2.2446138749736471,0.32765265080926337,-0.33175167319629945,1.7542801536043209,-0.23449574461000197,-0.75169855529475904,-0.57326425886219778,0.84602800713114357,-0.93418616506815477,0.35218021977003566,-1.4601976949081368,-0.86466036558868209,2.0041316416270094,-0.33543675740144513,0.93874864939600655,-1.3714176251223291,0.0080675504716044514,-0.97286974978932395,-0.35347326716167426,0.8026070685998723,-0.20663672415220458,0.22903140706412084,1.2121444119952043,0.67292483732719566,-0.27613705778670633,-2.0743566250925984,1.089124223569226,-0.083622342717331433,-0.46830242460104315,-0.40672979188248687,0.038014748959664363,-1.1475586565266729,-1.2648601527969661,-0.48176036750824081,-0.83392050909199888,-0.46715057496608153,0.85545037623186782,0.64431710275465015,0.74300017464331825,-0.44629749725173384,0.2180973093690369,2.2794785623910636,0.96834381309593576,0.99301980702202108,-0.096107838889084987,1.2632733905648668,0.13285709844888441,-0.431637286539584,-0.31523624133720213,0.31072722414231041,-0.87298516382172853,-0.26987036539737314,-0.40001576262985489,-4.1760920876694261,-0.031572795454189125,-1.4779638557002799,0.47268583772306172,0.017117380814204948,-0.18497811185882584,-1.1776292400570079,-0.34789112169647463,-0.77880257429678523,1.4656282876815856,-0.19872665361892849,0.78826546057601576,-0.9649446061186937,1.066016671536919,1.3468612798914334,-0.25713143490499701,-1.4523877898536537,1.2264460462414224,-2.0674733411141992,0.5706079726336879,-0.27037299620548316,1.4802339047009796,-0.55754985902346599,1.9853299415778496,0.66557954792701957,0.19778960478511598,0.5099697600240567,-0.59600643735794623,0.40700547413480492,-0.11528783412122233,-0.04181176165889789,-0.59728582449484624,1.2459049809911926,0.2027160937063481,-1.401407998644193,-1.0985284841195417,-1.0508730691585491,-2.1504722320180787,0.39873998801394195,0.4580154564879409,-1.1348968622665809,1.2126614913453215,2.7765871795333728,-0.51391796495007214,-1.2535679346785806,-0.39153413230446116,0.72282884735173725,-0.71980582113687275,-1.1248520024468147,-0.18420300054876546,0.73423884149854957,-0.22191673727071354,0.28336761591467979,0.76637460783571854,-0.70124662320098552,1.0309770843165331,-0.45933309443185177,1.0444960771827358,-0.10916214757211137,0.30001947929765965,-1.0871826383005576,1.5489693310544426,1.2572690920293845,-2.0519102821965807,0.41943641497202611,0.16128146889019673,0.32091007272778022,-1.6753624257213151,0.29347657997611748,-0.250020381063699,-0.92435964818103988,-0.81221729464556203,-0.71657586184645383,0.14631314496525991,1.2876207442557961,-1.7671592247905397,-0.45443109133745491,1.2339240304109158,-0.22332358836344257,0.84501228547409424,1.195545127290075,1.2992608046026775,0.11061947295943185,1.6275052028085004,0.75754736275346013,0.47469348920214427,0.68918110498639795,-1.5910113988985888,-0.73622138530296377,-0.18231463533741105,-0.58303792156969581,-2.6464851550103821,-1.7728612224569327,-1.1954648067934086,-0.70869577984455556,-0.19614978485393689,-1.8294167880849379,0.071364257212837262,-0.39006861142107591,1.3512127455520262,-0.35124257935235914,-0.12605512002411176,-0.86268308943202621,-0.33455062938399099,-0.60732312513099784,0.35184201221253852,-1.9509551559066693,-0.72582910336206341,-0.3088477055880165,-0.054518991677798827,-0.36433760067768323,-0.35171346862558389,1.6296085116353634,-1.537089888956557,1.1686668484484366,-0.618963212323968,0.43063328516381333,0.99419162159316288,-0.17360680681092563,0.059798491508757129,-0.40904273726078944,-0.51064103391422211,-1.7353056070435693,-0.2657587297187608,-0.72238145051833402,-0.54628859969650545,-0.99718523388154823,1.3666794181127877,0.759286635979883,-1.0938552353922366,-1.0077616636910578,0.19389116308254112,-1.0058229562613752,0.98858638544892363,0.1016094941105901,-0.5906681723659869,1.0960386633040335,0.7907730919575634,-1.4367129535706253,0.043606684271845282,-0.58109801838789443,-0.2150153169779474,-0.68319349759223724,-1.3119830256053493,-0.043425338058476232,-0.24889239067814772,-1.5301975766271385,-0.26605411193595252,-0.76438409230293869,0.87941321816737905,-1.2662579815321084,-0.42060462179863795,-1.8448632826473723,0.046035451015863288
-0.85512683510424148,-0.21626601971649631,0.68451409485533865,-0.21680677877040702,-0.63944891561999795,1.6572645083517559,0.57375062809879307,1.2748273486467601,1.2899430609734672,-0.33668031859175312,-0.17447246492556989,1.6786672458153493,-0.091932002095759885,0.40874604866641512,-2.0904177520296119,0.70901406546230161,-0.32727477365762936,-0.95652659115061323,-0.58956108084181236,0.4187116506106075,1.9514191131035041,-0.12480374759038139,-1.6846646950322388,-1.2532198465127387,-0.033518566663150715,-1.5352960298294531,0.2455153233475145,-1.5480892768818086,0.26130148656873681,0.63378383735468569,0.40937526191927692,1.9448276997810869,0.93786844605372277,-1.5287637879958278,0.074628786607785727,0.06951902150568913,-1.0465223037300904,0.48469675803359175,0.053415028232576822,0.024288854344426319,-0.50370295956979727,-0.49313644894383091,1.2676988015727311,-0.47363558727886185,-1.5329260881861495,-0.056635543018706457,2.3771573516292777,0.36107406843408185,-0.71071170114665438,-0.4494328701424436,-0.54746879305741736,-1.3306677868207677,-0.84464423494816732,-1.1551572610225445,2.337985798152737,-0.18176580404831763,0.3907698401856094,-0.011396711901312367,1.9545097640066595,0.41274651283458658,1.5719624229387081,-0.64400471710726892,-1.3212644183175943,-1.1117034974880646,-1.9011109427744519,-0.57442668571639577,0.79246574356222355,-0.50292151305456045,-1.1624846852742021,-1.7838584126522967,-0.34648409729128837,-0.32735819553151285,0.92303844022741044,-0.28600412471740916,0.24854072570971336,0.45892863178591947,-1.1861257639660117,0.97830888631195445,0.52872841487711619,-0.60402510117399133,-0.08308044748744696,-0.23210225438451845,-0.25786691081207691,-0.14808906775149316,0.62694747101865222,-0.14745981828336235,0.34199451523264418,-0.77686200759006852,0.060139117063296998,0.29947000550310809,2.1140497639118192,0.75992518306311918,-1.4938868742132194,0.92111317404750037,-0.68370560419187376,-0.40559699081842887,2.3291630243648105,-0.95119781303350859,-0.74975785595855826,-0.49173374655417729,-0.23622421282302186,0.9473256443523721,0.42581201512356237,-0.20503934963870096,0.13721977398910506,-2.6881915554597442,0.24721850086828648,-1.2779524274162333,-1.4994914986637602,-0.80212373189051112,-1.8175630225312918,-0.060265009185953552,0.5056221612801084,1.0274068537495049,-1.0183224677007761,0.47283617167891168,1.4212560403565127,0.43103325997411246,-0.25392837691364084,-0.075177022074167002,1.1638603374287808,-0.48281633771059057,-0.58109641759226671,-0.015141196839933419,-0.86977533584926459,-0.54786954744049887,1.3555823490938614,0.48950351081388072,-0.31247936796950543,-0.20579882124338983,-0.23495063641727137,-1.3422654391263256,-0.34969655568238134,1.9838152218122211,-0.93005625768496536,0.97948450043050039,0.05451340400534755,0.83870253045520526,0.2745526689003438,1.8431912862317759,-0.28513191123689591,-0.16171839133844756,0.34119208820487856,1.4459516041589213,-0.39007707840499745,-0.51131863157061919,1.2818989493727906,-0.44476148145991545,-1.4512039246524626,-0.33461991189981377,-0.31125751878788088,2.016050568409621,0.25848105897154755,-1.0113840458151024,0.99252452010153791,1.8941310771887498,-0.19555677821302411,-1.2527559994852617,-1.3884568915067999,-1.3000507752363124,1.0064948959875393,-1.0872420307375648,-0.83175013802034792,1.8156872048456103,1.4683088385264291,1.3439266113836101,-0.56509382116277129,0.32413765201434058,0.36053657296429781,0.24459548762850497,-0.69720811807737326,-0.10270183686234433,-1.1641712973252172,0.19698023149117699,0.64232281475840247,1.6041128215484712,0.49952265836077631,-0.13902048005793238,-0.43473805030181573,0.3241709088678798,0.7996174885596814,0.60211362145228586,-0.74646073422491721,0.42018239481178121,0.62946597745762156,1.0705471869861622,-0.93744707821099671,-0.11318409606191358,0.33840280540289402,0.20322367606031394,1.5357182726749743,-1.0103129885638789,0.12464717919357375,-1.8143628397624842,-0.23107190933437,-0.474662109469421,1.92739290382999,1.8200228070316691,0.58095103436719608,-1.2329308925319971,-0.99739061320422806,0.5842587073843637,0.47296826213395865,-0.32779667224514469,-0.28686279103483736,0.24074687125974364,0.3733871961155546,-0.81300293028645609,-0.93968542772782604,-0.21303121912431319,-0.80361076299609524,1.1113251405156725,1.3942078073929498,-0.060453136235831428,-0.58704568498727505,-0.65706545521809556,-0.58468214798559504,-0.97787830214527027,1.3875039002034522,-1.081012708701417,-1.5485395251472118,-0.090053133168146504,-0.44150090340800474,-0.8923420380770295,0.33378951469049095,0.093731679715857427,1.0566554975713696,-0.47564813256877908,-0.57948762285906719,-1.7268763224395591,-1.0727956785773363,0.87583057941573339,-0.31020716475257393,0.97006877186948914,-0.98870601618618581,-0.73581289818720552,1.2458501160534403,-0.92550983244666329,-1.488093099859658,0.41167119937979479,-0.75145230363346349,1.2992193354048995,0.8077746386398601,-1.2942529935694995,0.27652131484566217,0.88512194111340503,-0.19218526510343864,-0.39010502049517565,-0.29225336069141566,-0.069375290628728936,1.9525277068238516,0.57145232430021886,0.31801603260225403,-0.91604793921349636,-2.2328672941741563,0.67240511462907226,-0.29600439278481827,-1.492616134759466,0.23305893090868532,-1.0519411408387771,1.1675832743403352,-0.7895434545188792,1.0716856923186135,-0.83145002400839252,0.34104153852960128,0.0078783896063949095,0.18367588082773134,0.44596965341974282,-0.081273252015514899,0.016339486411861302,1.576673034038149,0.25069572409404023,0.12448674828660435,-0.039407418941307448,0.36984753526147518,-0.099360351962838239,-0.16047614114049416,-0.93408014727249278,0.20563659296938216,1.6118884925255268,-1.721325049000286,0.48067934935828066,-0.31523125598634472,-0.77315209675687202,0.78252161758156857,-0.15557619206433365,0.82563750169179728,-1.1894447197848264,-0.18281249150652332,0.34922098266741974,0.31742349679389459,0.46582719334390854,-0.71168684551918149,-0.9387187141316401,1.2236348130909527,0.058775272338645913,-1.5652393995932772,-0.30118249678203407,1.7947308854869803,1.4371808247310394,-0.36519282286838611,-0.69722586334244785,-2.5326377685177337,-0.76043864003828721,-0.57949884845226152,1.0949031467672716,-1.730425362234443,-0.96338266509302684,-1.2986536013784287,-0.56859711001810453,1.423422404828085,0.05763012210744449,-0.75173509864259214,-0.25220499972859201,0.06482462373338016,0.22792561939291661,1.4454044213396691,0.74196945308241302,-0.81560219863910133,-0.34548855735779738,1.4433332441442348,-1.1643213799313921,0.81577125928166583,1.166631998804381,0.67339554014204317,-2.0531610190996026,-0.7679483292315602,0.025420993837065111,1.2725339477871276,-0.69791071219999057,0.032594676466849069,-1.1005080784714185,-0.671519389833792,-0.56527548900218516,0.80450624216601119,1.6793521098933368,-1.6193391750597055,0.63479207014881034,0.26615728610911848,-0.19730569934218914,-0.21671461715235818,-1.0810674060230949,-1.4149147575286807,-0.18095644971568695,0.052481210630854265,1.2630205876093361,-0.6970453732026145,0.24817116098247774,-2.0616365930163556,1.4200918336266579,0.78632168805765001,1.2556099402799936,1.3440838215285194,2.5248294134565441,-0.49449602449581903,-1.2044971909374291,-1.8997719457574398,0.6502690607816346,-1.4681296378446831,1.1895924520773216,-0.36192921254563792,-1.3070967483786886,0.59756885159678297,1.2802385899115432,0.9161735880990407,-0.9216304153289443,-0.16071046955411397,0.24525224221247655,0.087527040537885972,-1.4864525956499131,-0.94707203312367227,-0.56524669771521185,0.78195811614734279,1.226547395225378,2.0689099327631779,-0.51636969818818101,-0.41971686393908902,1.7688137500065333,0.29599455310973738,0.3860793971111508,1.6129936585261986,1.3066937082650614,-0.45694390172927479,-0.63911942014532974,0.40291818018533226,0.13561816385529066,0.73811917112633796,0.8536715758543636,0.58823698205022312,-1.1890070723710886,-1.0428796975400563,-0.97493508948678098,-0.90647320841124623,-2.4239914640918894,0.86002841671936792,-1.2207865457882703,0.068317429158491927,-1.3471156757700509,1.0736311722259018,0.9841279470196459,-2.7005846042697264,0.50496143332528931,-0.47623466812692872,0.66684626233573474,-1.4279606360637471,0.58458920342332765,0.86207517513589538,0.12571731149214915,0.86834230587830785,-0.56326301904819642,1.4106564982653644,0.831860828906126,1.1437532869000908,0.73383553923848421,0.69226656946164478,1.0983779950175867,0.55273296236485114,0.31121922936109248,-0.21887998459562813,-0.12715032082739641,1.0036868641221433,-0.33899887667584533,1.4527486150807682,0.67211339973214101,-0.69293859700084637,-0.22510520240122062,0.3274292079409471,2.1661857512389866,0.40320399191818018,0.79285244720061643,-0.93770344243756532,-1.1471795057251155,-0.092094208810346079,-0.41285583484548738,2.2509933150946697,1.8282778306239327,-1.1557750161650042,-0.15104454583432314,-0.95844523503171219,1.3517849719323576,-0.72957750567905011,-0.64954036177230756,2.462719143386416,0.10098244448570258,0.23848410788355842,1.0693460056301214,-1.3295899769924522,1.1702290333733651,-0.76852532844333954,-1.2307992712377078,-0.9064321893844256,-1.0114099911992627,0.18306320141179994,1.1754910476699643,0.13712484890650245,1.3867125983060682,-0.90685936620298058,-1.357625015133425,-2.6168514991690626,-2.055068133011519,-0.69823171572203857,-1.4768748953239406,-0.1339015938207746,1.1410056488276681,2.4059034752145116,-1.8738200668212348,-0.55075611023238236,-0.65567477087337478,-0.06747849761555022,-0.77014374974694355,0.24712727257628878,1.3001303010744147,-1.8970593012586607,1.0553242264269553,1.7981884206251142,-0.4083522294067633,-0.4790680088743996,-1.4890551125754572,-1.0228981673743633,-1.6551969832606683,0.50314655099467465,0.88203028799502525,-0.38409561978441925,0.10627186391172878,0.99883571011109629,-1.0178500837933184,0.19563258763246252,0.028338561832853743,-2.5234405157502593,1.6259029833400043,-1.1492350745384043,0.4616842487356228,1.2455214378566433,-1.9618107723732252,-0.5114355369384247,0.47190659929917433,0.41678846945710418,2.5002078586468577,0.4143290322426384,-0.34762879839680461
0.41691913774696748,0.30945348739677742,-0.063919933174676216,0.76211449794778174,-0.48387154107593067,-0.20821673515234679,1.0013499171977911,0.102502023212975,-1.5553008628558533,0.84543720214446749,0.55291083846871358,2.1476688116053335,-1.6010015048348896,-0.48795577222969228,-0.38535829471808625,0.33755524031361561,0.091621385422079621,-1.3401593134408658,0.48195016549352815,0.26997690714116984,-0.34539871583113663,0.87348707647863977,-0.40497607994072993,0.1169536941580795,-0.38166719030641222,0.012085489184072356,-0.79619819552252824,-0.084657028323681646,0.71476385906220974,-0.45810708938551603,-2.3309479032430946,-0.051397835604044845,-1.3205748989215504,0.88079894118167845,0.18198042818756013,0.88304037965062487,-0.68011797827695974,0.46878836970409093,0.6578055396621203,-0.78370250961550614,0.82705589482855879,-0.92556011137256622,-0.52857101179872312,-1.3227875079002644,0.025801904573676,-1.3444160615153986,1.707111813047044,-0.46167051833352624,0.30880005241578307,0.035979803642188057,-1.5851036560989213,0.46000693110806384,-0.34428055060551893,0.45593789095012921,0.60199984571742948,-0.49942105958575295,-0.51622383985429499,0.60625690892515016,-0.27124069679600565,0.54444694236169766,-0.21005947629263416,0.88613381466290564,0.84230429373235638,-1.0337442061934621,-2.1650985745052571,0.710550230585411,-0.00082212794057927221,1.9140292704333248,1.0788909659230053,0.55121599349836636,0.15685237785279635,-0.47368310016741388,-2.1137599306342638,-1.9154953235721979,0.57792394284125759,0.03741159347545206,1.1975381992722456,1.4205838910136128,-0.82658724434515718,2.3172074774684592,0.51890744237219588,-0.84599266826358499,1.3578654728245865,-0.24626138515024151,-1.7858232672925392,-0.21982610692866622,0.48847744610683408,0.60546890381318186,-0.20942197710970092,0.92368742955578853,-0.77221876813527346,-0.34263322765954735,1.149896912974953,-0.43561126767343866,-0.28046154106190002,1.3080934626844325,0.62476674123714271,-0.75211409976119725,0.28794273062112946,-0.47685267148557248,0.98226277105754278,-1.4170779492619685,0.57623754380753012,-1.1705287298367617,0.31135675239364119,2.6301058840467939,-0.88870162071601844,-1.7370844195914532,0.46933458746169626,0.67144838753978364,0.53270940957447754,0.32066074996597921,-0.36632201297384676,0.34714972127619437,1.4414311351992923,1.6700329375497414,-0.6919203827272804,-1.8120986692924428,-0.63447930868941604,0.45201466339312829,1.1841689799287642,0.30119370714754262,0.13379916323720698,0.026214464859945621,0.1356370788375707,0.17324911612200156,0.97146525173785825,-1.3318895338192844,0.50958241572514396,0.10860370026550466,1.3060831062120724,-0.24306604423933334,-0.5781152043480986,0.51163544141463124,0.77749512020263978,-1.2426956419744395,0.36828980213105228,-0.78866946180076347,0.47566707543795261,-0.01133212517455065,-0.77694264040190975,0.85436648027011952,0.72326216133839638,0.40417595706211162,1.7215747085276532,-0.62829433005661495,-0.054193856492860529,-0.04152687465791819,0.74868319897132374,0.24983087158924747,1.3508068694648785,0.89403925577039822,-1.0347302776085261,0.72378637223865927,-0.39769487849068536,-0.31407618439064111,-0.18603305943906104,-0.26566520572350527,0.79017191711645507,-1.1234213697049158,-1.9308692182601859,1.0311964633124679,0.071188263107256775,-0.10971862395194586,-0.4311358497403262,1.3615778938310212,0.6250333986536315,-0.22135302869769008,1.0755313739322916,0.054804400874531228,0.39432150302873226,1.1765284671041134,0.94435842456097507,-1.1731063755664053,-1.1968414764619251,-1.5560124705534928,0.19838268748432922,0.61259984507386511,0.70256770984421701,1.0791032747692952,1.6477681355718969,-0.7406337435632161,-1.9271194282455615,-1.4220907400426372,-0.87932357964457675,-0.11353571771957278,-1.2352539167356629,1.3015700379737905,0.80042441926026386,-1.0527293682279513,-0.60061634169468026,1.1644308380411146,-1.9577404206794622,1.1622637202461292,-0.32754620583644006,-1.3968391695146056,1.6669464673333085,-0.6620461396624967,-0.9682845101296762,-0.17961068575823722,-1.0713374524662791,-0.32720631578164056,0.17152588803710839,-0.23099175191554552,-0.86759353235008396,0.58689943134602851,-1.0173353359731292,-0.72074635237821394,0.52969111912373457,0.14828578779094087,-1.4805407028419015,0.23149281280292899,-0.34376910274016764,0.51500667251979526,-0.49753331991191641,-0.99519023757462166,-1.5068350125677235,1.4994061240319294,-1.0234206078822186,-0.093187607212389514,0.96080961666601294,-0.092898337821456109,1.9044651573192501,-1.5620036133397641,2.5517680590991629,-0.45023417086323836,0.085468846845625376,-0.57642357948919942,0.49733873170663379,-0.25032840368635961,-1.0420225850043703,0.049581149568442985,0.71191589122222931,-1.0599643370790828,0.30312503227677201,-0.81230908159051896,-0.89349995567216234,-0.69444549279091083,-0.27258119796333091,0.71579903347559615,0.68567718704567482,-0.69070630468782179,0.4677589260137674,-0.20127210521026542,-0.41931042979018512,0.60172546361734902,-0.023255411576214163,-0.11769641728512566,0.04903987121123074,-0.46392974838791168,0.6841350879537148,-0.089992931963759043,1.5065518107334543,2.4745404194963543,0.84019324140467133,-0.35616863432989587,0.20013463949581567,-0.19080324843986529,1.1287097520260723,-0.78050355988974485,-0.0042678366068864349,0.81267556484275372,0.35392509731511873,1.7287160610356149,0.56053123552745887,-1.2852266540273738,-1.1286636404236918,0.44363338126722518,-1.2912661461365842,-0.93818762290584035,-0.2687842263548908,0.44075633006391518,1.0512658409915143,1.6957721612635808,0.87815664259382786,-1.1898640506170282,-1.0278120747878887,-0.47262665178476471,0.87022549812381245,0.67865095889756899,1.1647646058971586,0.12288344191123814,0.29220539761051695,-0.47233412392247415,-1.3549531319145716,-0.94078290478735815,1.2311073016515899,0.72683253235168388,0.70419667290631283,-1.0834071096496551,1.7774715130128904,2.3391649934345753,-0.4560865980238023,0.27871818059485148,3.4434000334527268,-0.1560365690481873,-0.42878844078615869,0.3762923039261068,-0.8429435452328532,0.91338439564080054,-0.48036257677960453,-0.14849845339749265,0.41553830213507548,0.40767493893833917,0.028974037607625548,0.38205634248114384,1.1193866456579988,0.67022401402143728,0.41084187765333141,1.2955143942748393,0.45426838521298979,0.28948301539758042,0.87513718429418763,0.28911806796413569,-0.65522677782069882,-0.86007835709285607,-0.27229536952969546,0.3862757199750978,0.99548837690427494,0.71028540895607917,-1.7701511866162949,-0.084894832157210817,0.04940192627926783,-0.69875609338068689,1.5634096070306855,0.067255911158761658,-0.37289320098969425,0.086194636153424833,0.12066710404755998,1.0473615608339921,0.52844118522355199,-0.50273323482718724,-1.0907108174165527,-0.30115129968710602,-0.18909602259313352,1.6648022536646536,-0.17642202642718394,0.52298208781527034,0.9079359107579188,-1.0059778019155674,0.21753351604227111,-0.31231775548948582,-1.5177777918865556,-0.71519018834428005,-0.38994635512623743,-2.1576449602567256,-0.93323547454758748,0.33812425791073603,-1.2217403977974646,0.25645077168170322,-0.96722438421601298,0.24358029103473197,0.10227710725395146,-0.9346897485008101,1.0840952019170393,0.032190286407807654,1.2262481157589287,-0.84645174699526671,-0.26450901848786734,-0.19528461788156917,-1.0866581941007465,0.71237791250553617,2.282089530132644,-0.13753881985779598,-1.0097209862807939,-1.0355706834287837,0.11391411843369906,0.28541579504752701,1.7756730954819089,-0.79852584973371399,0.91111832775094803,-1.2430005578581178,0.20113122350268844,2.2350940901612883,0.67762926384448086,-0.35499697330022945,0.87405508111909258,1.1090289183813646,0.47000599297696383,1.7980282886240442,0.15153144849435937,0.7002416344885668,-0.40937317667965722,1.0814832751305068,1.3966568316208416,-0.82276272420204477,0.84158296637920338,-0.20996265196174094,0.71810204145263923,0.47977755522262511,-0.43815595945163749,2.0269367578667818,0.24729789753470088,-0.45189421975640393,-0.65697304873256646,-1.6278205080726742,-0.385999130192759,0.73031139431049696,-0.450841336010816,1.0978847564600429,-0.91491510547784105,-1.2544177218762851,-0.385696257513716,-1.7048893526019504,0.18710901552997661,0.68587010893628875,-1.4360826486157654,0.64373700706172066,0.14706308970030965,-1.4841251142816936,-0.56392330131899893,-1.8001069576588973,1.6597126634282415,-0.79375638886362077,0.95256901520708814,0.855301042801767,1.4589111136393633,1.3047941658462772,-0.2098526472436229,-1.1314696727243483,-0.076696450011701028,1.8105874325135254,-1.7255123539887975,-0.98334532154033083,-2.1972015956240805,0.46631662539460023,0.33907296925065949,-0.65500193537404161,0.17798261720591332,0.30572275293054402,-0.4512257024447221,1.2043416739712702,-0.49324640320196667,-1.2723957604563738,-0.6006637405566605,0.054054725915430507,0.08150897409973612,1.2193091196439898,0.72492052228452786,-0.77092748448025661,0.16976623803374979,1.9242758445321568,-1.2740441265967384,1.0051392879646239,0.29391696098613612,1.9375053394144881,1.7247616976793041,-1.0696182807545913,0.43020511617549539,-1.8879440410397772,-0.18321033259418074,0.73464078528391263,-0.98702379756097125,1.3172229209373123,-0.47068370561918665,0.70305740811484674,2.7393106763002675,-1.8268384410907923,-0.32772584839716473,-0.11744888617570036,0.30782869280673997,0.57658600975012919,-2.880585011615342,0.56023300160699863,0.45507360173884476,-0.69991292334517186,-0.83091271356833718,-1.581584722516838,1.8566227596804075,-0.034105973997033731,0.82739218993564578,-1.6762567213590176,0.7557936400416343,-0.41822070289310426,1.2373301447473413,-0.54926657969040815,-0.78169400279339152,0.069526625247243221,0.23017123348948873,0.74606037099002576,-0.97816048115912502,0.37679495231790683,-2.5991798846107157,0.49571076728248814,0.98306659994113377,0.47941791037648523,0.21140391669897518,0.014637939425077013,1.0386750821775765,0.69709600106812752,-0.17476668865589123,0.83658514958473729,0.65709341853388004,-0.80067547792569593,0.72171479845524433,1.3304740464392049,-2.0682688818041752,-0.47016224304003246,0.20749122211311641,0.2137112284023257
1.5419722877293838,0.4389433567686013,0.76680354172299481,0.33303453160851904,1.5703917777634866,-0.70439033585393229,1.3541345355016021,-0.69836047805661461,-0.080596943173111377,-0.73622006162377129,-1.037220388669017,-0.15757955386624545,2.3038190195815011,-0.29087657875778306,-1.2382731489485119,0.45818891798957062,-0.31291175565272183,-1.8141047974705173,-0.096696564177907313,0.34535956381030419,-0.040240368075659033,-0.69500892135629821,-2.1495743120512723,0.35788081431966223,-0.9372755790331847,1.8750817398205202,0.46074316066501969,0.5436835229491892,2.5374997105498482,-0.50414517287174243,-0.070512926133425247,0.20490072455362723,-1.2636573265070885,0.45703708549944361,0.62121765009071217,2.713394351465201,-0.53550740937389263,0.23171795553706473,1.4039206295321569,-1.5353599825561037,0.026968010817598587,0.5068907679760013,-0.82890254788192819,-0.74447178438634987,0.050527864067841231,-0.15266979920216406,-0.63315830888863811,-0.81440486978854865,0.06953109945728525,0.33688489119307313,-0.83029172885643299,1.0301093906406926,0.51850332608080807,-1.9595770498731879,-2.1827350620973136,0.21021097369387556,1.7975567492549613,-0.53483536607523852,-0.86571712518734845,-1.6599030676215616,0.44817129789785437,-0.035739632697875383,0.97620826861899956,2.1368873567922591,0.32150399670324409,1.0133843595528651,-0.88418790804098346,-0.47308697000319649,0.37077735688376601,2.6969461208935237,0.58246616798169604,1.5802612745503863,1.6703952452479709,1.9111241609442717,-0.91532973926276129,-0.062058347880037459,0.82568596857737997,-0.50937033939275533,0.47616872354828355,1.2555889106829405,0.054888431434809093,0.026758278132428606,-2.3990455777779514,-1.8609980589233253,1.0129717620946399,-1.1680772456721407,-0.62879969790461165,-3.0395317836549092,-0.023060516221026239,0.83126757122009698,-0.36860990155976708,-0.85825663242208461,1.7147236622883417,-0.25771811316608867,0.25071427035639021,1.3875504809995394,1.2234135951417189,0.0014342675755756812,-0.60298160484956476,2.30738534316334,1.097153628968988,-0.94749203601255072,-0.33776469888011235,-0.91329475545383709,1.0963256757480939,-1.1390975627595752,-0.69927400653166216,-0.87718180156502856,0.041246447950014739,0.48402749492223524,0.31598385956854858,-2.0317909587461309,-0.43793762469917497,-0.26950651271214177,-1.3936541966936988,-2.2142214304534145,-0.44392415015210923,0.14357371337599517,-0.61811728484654971,-1.248439821895682,-0.17471814388663984,-1.2469548509230373,-0.4389531700885318,1.2124307073234069,0.6730378724004471,-0.60564370931026179,-1.6480119936046858,-0.81652741220252312,-0.49246945746395893,-1.4760879110320788,-0.52495798541069527,0.79431698740071932,-0.64959478928747394,0.49187111640070624,-1.5288673366915977,0.64112926131903158,1.2405839840536399,0.24109057830928821,-1.156151697157056,-1.1187327400398106,-0.6371579189726031,-1.4724548214988566,-0.013001000119604315,-1.4713610321086952,0.64146465566524635,-0.48280866182584448,1.1939327880841684,-0.6254122458998973,-1.542370911388014,-0.78258254605963473,-0.97530463036213,-0.15809726634079729,-0.6282177014710133,0.56435126238046851,0.22203633118499796,0.48208404097807822,1.3174241689345139,0.78705272058577758,-0.077398383496595127,0.2955647982450435,-0.4602416160870873,1.593061448178583,-0.15437098888553846,-0.77172177322846514,0.60394876618949878,0.17370481863457071,-1.3773022196031341,-0.81630095713833417,0.93578595536176412,1.0933382849739712,-0.50577488283936278,-1.1188200785734057,-0.75343447794006946,0.48618751810849054,0.48768065884135808,-1.0087475263064853,1.5043553145253468,-1.1545511256500713,-0.58368876956414339,-0.13597697116438401,1.0523149853137215,0.79333655294003946,0.92691874962825038,-1.3722954931328017,-0.72233523169064984,0.15042107646770211,1.2191073194221678,-0.81388667611600707,0.068425979288373268,-0.18608030300288811,-0.10079608616718999,0.3221944172479928,1.0194990123951664,-0.034862532653699339,1.0331470516448518,-0.091630548691840855,1.2628896304965174,0.32553014023802873,0.026201302603304426,-1.3999529594656255,0.31820378001447863,0.39611207495498568,-0.22747173336780344,-0.021028534029299426,0.039338330808375316,0.054339905247531926,0.16057505080240794,0.34019956328219064,0.28769391045433318,0.92896644959868591,0.25380938320956459,-0.78132778581294782,1.1386398890018676,-0.66991045124080384,-0.30718078617072114,-1.0061343009529102,-1.2416080982032067,0.98317376540636947,-1.3078896214113362,1.9464238455077485,0.64050549412195057,1.6344547150678708,-1.1266098325569771,0.58876378697482445,1.3009212993575832,-0.61424128400109312,0.53906216871239121,-2.1792168054887529,0.15743375111957769,1.2964865592222292,2.0119696749711644,1.7038651899024677,1.9491663321251944,0.208773937119313,1.3716069400717386,0.12284936329647124,-0.54132517159156479,0.37032426369059429,0.27401099751858737,1.0468987950295721,0.32198938391709425,-1.1323524615059972,-0.049011208734877444,-0.056902785368845334,0.21603340978298771,1.8195617828627153,-0.4876889276177313,-0.30669825210903567,-0.19008455312163255,0.2660677673218329,-0.39243761298392471,-0.59753789289619397,-1.3093857129203843,0.82970722996038193,-2.2676501715351995,0.20261456513557821,0.82962086832897131,-0.59599374095870317,-0.10584939242510795,-1.9795531065619665,1.1720225752489843,-0.14783251474446249,-0.87937983914327689,-0.5505507399095988,0.50776562586599905,0.87698925574965247,-2.5162019400397626,1.4094815306973805,1.2756386288900989,-0.76527930662464871,-0.34190973097321692,-1.3165398963030426,-0.54057270655562517,0.48645792094252682,-1.1623582007551572,0.0092169670428449233,0.35543945990223719,-0.82999898912698633,1.2918811014237039,-1.1942442669021949,-0.46964384728099351,0.014368442735647363,1.0566341623471269,0.48306712439459693,0.98855845173183143,1.2099382355048443,-0.37525632024507771,0.47472478539893276,-0.54958330699118974,0.64213072096082224,0.9242700493791689,-0.25561282758373643,1.6218664219340417,0.77027616997049453,-0.87029337392528483,2.8287580819491525,-1.3778827407219356,-1.5947968121992584,-1.2409269207509814,0.90510142183834208,0.68167897832702762,-0.80445507328016264,-0.52142327843157876,-1.0694025113836643,-0.91061440744966904,2.7644519598677926,-0.1847969563171801,-0.99014971096683957,-0.34509796350820549,-0.31274336633719479,-0.78065689254819959,-0.42056764757787179,-1.3955779116743732,-0.2475605310910976,1.1537930705282835,0.58779708113470963,-0.43513093559770916,-0.37173676782139692,-1.3474894011872516,-1.3006091941308056,-0.57919215464503881,0.14530321037422372,-0.63437882856162131,-1.500836216893829,1.4031246046649042,-1.6789597954560807,-0.042850646856022384,0.52789779472639442,-0.64622225425264146,0.69454697727821912,-0.59630112839295069,-0.014325077060546448,0.29785097414611883,1.4867044715113551,-0.085057210481806603,-0.40978559187195152,-1.7265038182845089,-0.44084732375125552,-1.1139373507954415,0.46302525222660074,-0.6837276343563421,0.631166639173804,-0.95375171499371647,-0.015844101580626938,-1.191054784356421,0.23997526950818709,-1.0711240050525608,-1.2907793911026824,0.26237373458968788,0.11114273146898478,1.1605900063694923,-0.078300182940055793,-1.2567185625330541,-0.045430902956086247,-1.1486579657110054,-1.0313283825527757,-0.82469978873175742,0.046128976215994363,1.9143529754793134,0.82395748457614371,0.44663436964650027,0.67653230134863795,0.58746028256116289,1.2274887965269392,0.54072127844532236,2.0242630997621047,-1.2038294154250848,-0.55275343212960781,0.74989646920823749,-0.52248017103796163,-1.196406668514308,-0.13794787152651433,2.6262226924143821,0.560238578564902,0.7566858635570165,-0.72153505719199351,-1.1539829105462494,0.6288325014052154,0.65446049762949288,-1.1223827844595855,-0.88525043084416455,-0.19246143970903878,-1.4175864656575301,0.50308257376494991,-0.41461503185656579,1.8943070380202898,-0.52754071721958695,0.23638807104902299,-1.7364267423101323,-0.93717055439234409,2.2247943048722587,-0.014702288534660407,-0.23271519640841995,0.59758030375074822,1.4158948590558766,1.1880284366273048,0.92328489746254649,1.8580407960797185,0.11758001913520877,0.66991213907377956,1.1412274979580359,0.92241734425083921,-1.3894070127574301,0.84128585449606619,-0.25255658251047697,1.0176775516306378,-0.71629355776243853,-0.073474990138345617,1.9593652740638801,-0.087305582295876469,-0.83699997525175907,0.21374041807782498,0.038318785437658473,-0.15755687888380132,-0.43896141474910066,0.66903321632154233,0.016233450841532035,0.42122094940377663,0.9119213462974507,1.0272477935007802,-0.53921895051846025,0.6267628025758748,0.63068050914787255,-0.20365419059014572,0.81153298403859397,-0.68330989309537316,-0.56350711835617362,0.51531866926735304,-0.57671713722901841,0.33048003477090021,1.0185819646873131,-0.71518298007922776,0.40594799832707273,-0.60173489764324395,-1.2825293545707759,1.3753625979090014,-1.8055380707813404,1.5172196624551879,0.71319528717998049,1.5220432905464298,0.17794372333339584,1.1503583968129236,-0.83833485487325987,1.2332264454016111,0.17009516252478019,-1.1455005136297347,-0.96119105038723496,0.83098914236368959,-1.4330210082426342,-0.82124827484690188,-0.52009158973470693,1.2382783850311918,1.4160894021286707,1.0360136436252725,-0.42442083486951576,0.1168701732684197,0.75175969138317233,0.76275145608176009,0.84320192319500353,-0.53473417953329438,0.10126709901085203,-1.1469279541272313,1.4718042532525426,0.25102604391141597,-0.16202875692831648,2.2286112869024945,0.750978453127217,-0.37054727165449475,-1.2701691715949259,0.43397948037055123,-1.5521398407851694,-1.571687305695171,-1.0484890332534635,0.51971876939576045,0.81838286429917662,-0.99332168455365999,-1.9810533364699112,1.0516622307554386,-1.0607397631961633,-1.5794219006255648,-0.21347279431250907,-1.5340874636709363,-0.10771582660923629,0.46685710314395923,0.71512065543143477,0.32834609003765858,1.4448027272503654,-0.73387991436651834,-0.39052968841167957,-1.0295643691889751,-1.309395833240016,1.2865220158324826,1.6330173282400793,-0.064182418821022769,-0.21899547673615055,-0.78117713382069121,0.20564353819210107,0.80437116080808424,-1.1755352194003477,0.80121411498246498
-0.064405471034801307,-1.4923331783948848,-0.6939011139709127,0.30188326501495349,-1.4558673180453554,0.85594718382949886,1.3347707562827691,-1.8977952581300166,-0.5636698954760927,-0.68753484410189403,-0.14283547160798021,-0.37673216671368509,-0.92474006931842945,0.22858398848803796,0.035922817418787216,1.0265082064252768,-0.80611653390038396,0.018200287413268994,1.3409821557082606,2.534667612160348,-0.14957374399467127,0.72922453386158825,-1.4410289404543477,0.013809616337362517,-0.0080583538435199994,0.3494867882493774,-0.53993841416544508,1.5330985391109342,-0.19602403070204588,-1.0700077467850551,1.2264241491434205,1.2606002414512367,1.2377816806527624,-1.4549562799360543,0.51150851406858122,0.81517555803186759,1.0730476313012478,-0.15160643612258956,0.2386535477607292,-1.4694066198363593,-0.84387674058883466,-1.6971443741364765,0.19344914776145478,0.14155888431631136,-0.37886913540728734,0.035978895253445449,0.25979296111426781,0.8994427284341856,-1.2088209128906615,-2.2068399203057667,-1.9232040333047413,-0.72448227079534833,0.098100090611128343,-1.0796011341273275,-0.57165338876388094,0.85433565265373101,-0.84541140162983508,-1.3345629681584525,1.8679850342451727,0.67703226736280298,1.6578558637766712,-0.78550540117256218,0.24105587539128218,1.8204396124119464,-0.046012191124052686,-0.12938474986877221,-0.64915042792934374,1.6415641737914353,2.1291631774414728,-1.9743846403552885,0.25128661207308384,-0.47042642896612069,0.094325116454893942,-0.45713701718842426,-0.57012202485886732,-0.37800715117810385,0.24002856921160334,1.0798064119872974,1.2733721662070239,0.5449229677110683,-0.3701729117939655,0.90700063426145472,-2.1868618950639935,0.059918821641290199,0.48244894318094877,-1.4496635883507878,-0.12726399416653997,-2.393490697913399,-1.3824049568937402,1.6199656653791499,-1.5529148677245517,-1.5456107912143942,0.66336102809304864,-0.72281200684719071,-0.25495147815149499,-0.34528541032434201,0.32047143003361439,-0.47148756731146102,0.42182469932371425,-1.8354951392260486,-0.24433652415902379,1.1082238808280414,-0.75244625436187484,0.17057881851152459,-1.1550933866230819,-1.4431758120569582,0.9386817858167058,0.34777355826755429,0.3704079312495146,-0.62647583377392346,-2.1171553367358777,2.047383770593441,1.1393374287692379,-0.56437597278285156,0.68406243189719618,0.75528083803319979,-0.77155463972461602,-0.70524268931506207,1.4238003098782983,1.1025963116649946,1.0433017436997605,1.149829157923673,0.050025149804356052,-0.34055323166157092,0.25351328104062815,-0.34714958425679687,2.0959237381629072,0.15526663789731873,-0.17097451207922898,1.1011571893745298,-0.078025275147396961,0.67431157561587241,-0.14492392708718779,-0.14781560724024159,-0.50623830307493267,-0.68996641900264166,-0.27738464579194722,-0.73394117998848751,0.13786937401287983,-0.48638331574895011,2.1260133049616083,-0.2687904857601478,-1.4004083826648477,-0.13259008249288193,0.1754386280785217,1.2875891856743573,-0.30744882209905933,-0.86799485544594257,0.50568978724922364,-0.25895502729907066,-1.7936182960726699,-0.17740426386707142,0.79999238135352391,0.51463347579862606,0.14692212068407035,0.55210805891888792,-1.45018115816569,-1.0806790856672206,-0.4663609707503435,0.29258963783882225,-2.6688613250271231,0.32670241962333679,-1.0738657867149286,-0.55326399861035302,-1.083547967878139,-2.8340059372225355,0.50717077841881886,0.17767479030732242,0.63415787155279324,0.34288458049824178,-0.4273022518049997,1.2182781889997909,0.60950183240094236,-0.37464548282153515,-1.062514283388077,-1.7617552274655988,-1.5218314258959407,1.2920430346599387,-1.2086728717938302,-0.40630101534518703,-0.76814926444633835,0.48656251485056895,0.22971709097604331,0.82668444903158422,-0.79992168736559743,-1.5755626407054317,-0.61639025011755177,-0.13654462201170303,-1.3565988627014967,-0.056393393050643038,1.4237339183361513,-0.81058414532486656,0.85527988099559771,1.2893732266538069,-0.50659599337576056,-0.49764544509299918,-0.52590639689793683,0.088489869960260856,1.0140742647540859,-1.4323215696078671,1.2381392780658207,-0.12261122408075723,-0.07046246758022548,-0.80170177431470691,-0.64252049756394491,-0.99753879789646172,0.89983218263482811,-0.78366944744762912,-1.7355746321535963,0.062980316609699133,-1.9194303477055612,-0.91416883129204929,-0.73429416724823249,0.074382065844736375,0.5445809807385551,0.054931733934920131,0.81111169183606202,-0.5931734024441867,0.74251407817319148,0.19268302263128381,1.487845231377191,0.41648341125544375,-1.8834053777537743,0.01670309817198902,-1.3995498467079521,-0.99077859459987916,1.3387910675554899,0.60834485845725084,0.31370765101758885,0.13745932220434337,0.47049646905190395,-0.34839336680349448,-0.76446458433578657,-0.15326003965099169,-0.37988880456761803,1.5439675798204673,0.20061195149955272,0.11130293632712046,0.86517339489231171,0.64059343954565251,-1.1656556299129921,0.11488895708629833,0.13479579857372051,0.33035552202467666,-0.38385958863639563,-1.7075201142993937,-1.0700225903760294,1.0486559859011391,0.22893495695561319,-0.2997877377022391,-0.039621742556576654,0.6152113843783944,-0.30109401677283343,1.1021963097766323,1.2882432280355469,-1.9084593318999112,1.2585891440980459,-0.085752910382561887,-2.3149296522221205,-1.7543525281044827,-1.8986149688495997,-0.076950639900793788,-0.7559320988053797,0.13464538469952986,-0.57811893114426638,-1.1784387373206704,-0.7271847999660398,0.83365850128126451,0.28689118645637085,0.8486313308453074,0.42915036338876889,1.7424470775130751,2.4092156265703815,-1.3132759308161062,-0.66551423160355394,-0.61353757327108871,0.78938128457173595,0.48628211650638203,0.066268102746807653,0.1869370107954989,0.18080649447952146,-0.96037660564162375,-0.63423563610008726,-0.51941676041300744,0.88388834171094399,-0.33242452494085767,0.46954157818489023,1.0463855967846465,-1.3940541453860713,0.78513707181256231,-1.5204484386066544,0.03569274451008278,0.80498547958849365,-2.1962277514704835,-1.4550033965339817,-0.88955994848443998,0.96608789690007957,-0.10064564301714517,-0.60072163856923877,-1.8450730865248239,-0.82183699380006592,-1.02397413304419,-0.68663750392769307,0.5929503364189711,-2.4304772139913537,0.87996616089088475,-0.22665055885079435,-0.41362498069196052,0.069841462464778736,1.1336651376531204,-1.4675701186779997,-0.6157092859542832,0.47302951807960342,1.3249697990714129,0.037629287702226635,-0.51093469891277343,-1.3766973962454438,1.26145948507535,0.0082348617393485195,0.049259146633023561,-0.11001480250596207,-0.71042592042695185,-0.87819845956329012,-0.64074189185132324,-0.020888333880397906,0.52312973121579298,0.03298058595178481,-0.66158275094047025,-0.76059109042042494,0.7466629705226796,0.44652511592384997,1.4519996952271808,1.7604510516641132,0.869775354112309,0.13157164965929805,0.15966832345742998,2.3438325030867047,0.36502466827805469,0.0040183065468088397,0.49160656807936842,-0.23608014772598512,0.74160094639790941,0.83442111891533177,-0.1542581172739082,-1.172384020423928,0.31702856774918925,0.43275757472512522,0.66708740364269958,-0.46828291758183516,-0.22252783838163528,0.39595631283218835,0.98334548690890422,0.68749010170217961,0.12661945736537406,0.39847198017074942,0.068693904129953451,-0.62996839890010103,-0.51762675249836043,0.14459988345980118,0.88296915154707845,1.2875731346176946,1.5569528938856152,-0.86355122243600202,-2.3349983591505041,0.85208893127361074,-0.19666323121817814,-0.88241809891621503,-1.5307577458408872,-1.0005630457957917,-0.5822986936199156,-0.99698923361909908,1.5582647940456369,-0.009084074635561051,-1.5251029663461186,0.0011731681456576307,-0.048163411028598432,1.4637826240634146,1.5813246527376106,1.6237321233997479,1.3599432984577258,-0.68315130867050156,-0.42284301845140426,0.60725233515277266,-0.73515295731771246,0.65907159194328169,0.94746432836118932,0.74610644404193927,-0.40712337004964944,0.72337388604868769,0.67574695833701381,0.030320670157401881,0.30402622132103863,-0.44851281380053243,1.0547293760039458,0.90550176403403992,1.9519084895067573,-0.34721618086723632,-0.58640008930805421,-0.15028403419250339,0.0051576392202873486,-0.54500734611611157,0.72164131670659559,-0.07685741729488553,-0.31505950207911787,-0.17628227275123262,1.2252413705386995,-0.64843742749779543,-0.24327879130612051,-0.39157216709262299,0.85898369521705997,-0.28518868322166335,0.33697058762584847,-0.56364138581864709,0.61011185311444682,0.91764772496306057,-0.49751186112106049,-0.78039800626517375,1.8234348406426213,0.26187966836150911,0.34071230223405236,-1.7705286510692573,1.2638531317581931,0.25491199632442008,0.52659257345540533,0.89309990606320167,0.11306724122989201,0.15339614784525551,-0.54440006702402832,1.1335831027101579,0.86601269659470947,0.26994214362123714,0.096770368740088958,1.2864088711018751,1.6792480469092808,1.0173809618548819,-0.57591867998143353,0.45686976192447609,-0.60447813869771905,0.88625339134475067,-1.6675815730804857,-1.0394744654347361,-0.1892598503175294,-0.86564212415731434,-1.6487091598808032,0.93126718296215449,-0.81467889717395303,-0.53663847907477447,1.3110539045974439,0.50630359668533831,-0.5018750554025242,0.53330171642792079,0.079592749372627281,1.5509831679310677,0.035927600627132884,-0.41766343524056537,0.62197997133548688,0.80986200523950114,1.3493402181423577,-2.272130688238712,-0.48466521331721907,-0.093702078307533618,1.0501452914434177,0.64476501961508026,1.3825450045404744,1.8006012215255558,-0.22216806261880373,0.85386740824051466,0.50367865628472197,0.28695053212813021,-0.080701025270183815,-1.5281559376421412,-0.50205936315446442,1.6420712151313681,0.90808131625289867,-0.84002586500086018,0.82716219118872869,-1.8953911145000133,0.088239850684465007,0.68560073875444383,-0.52892220990162242,0.84769015011054327,-0.30666688530422481,-0.24541937510807191,1.172714032313698,-0.32294206950003396,-0.53485838033608979,-0.43132487292409744,0.13413539296448282,-0.57092432700813456,0.52772778255704511,-0.071589981764307503,0.29195202990458907,-0.14395240030380471,0.52910736393111835,-1.3869266335546941,0.069046001449023245,0.32801269682583828,0.67706532247627937,-0.07811051633909348,0.47845284357987106
2.1434225656642005,-0.52635549174022933,-0.22627204600592474,-0.87724762079531149,-0.18929556225347449,-0.70199513413470738,0.38819853472787402,-1.2399160886019236,-1.0640995266229236,0.19904285429495641,-2.1379655703368665,0.059004196446417349,0.64846539218269017,-0.60117274900980422,-1.0646721835375932,-0.60646208307157146,0.20758754938650886,-1.2183365187846049,-0.35520877790126815,0.76531562152573407,-0.44381319724402474,-0.71157484042963315,-0.83361597274847044,2.6496705790462971,-0.99348374189731747,-2.6267290079306505,-0.78170702486755461,0.74633499817866888,1.4013071724371999,2.0934499292629809,1.7662025550481779,0.21507081135435019,-0.3349335978610502,1.8175714636376497,1.0254452247220112,-1.5206408954840089,0.659404535657937,-1.8919560151426014,-1.090052888357562,1.3011157829136939,0.58902394375744849,-0.961086301095049,1.3118541154266132,-1.7692498861854509,2.1664541424934147,0.87318028293286132,-1.5619611093185135,0.89583861297199441,-2.0526855656457537,-1.6723955638691375,1.4834763830722562,1.1479959624741707,0.32588840904049654,0.85491554821245597,0.44000117201417827,1.5002249533312704,-0.53157032885854616,-0.75503244550076809,-1.0438297928954288,-0.4772965380197689,-0.99698390924197944,-0.71103954316918483,-0.7734336254586569,1.5763034766591388,0.71298633584646298,0.90496463330635901,0.27139420938479214,-0.074450852608342749,0.71475708379287273,1.7465252671640774,-0.022056341578121978,-0.15729556969247638,-0.41966361450147416,1.8464727706339861,-0.95182614603462379,-1.4428365748825807,-0.18031012911526584,0.10232151548263367,0.41017256450227563,0.60111497223881405,-1.3078110251289685,-0.84982879197852579,1.2348193514747161,0.46569550943766364,-0.43312803116663146,0.2388902767377824,-1.432202024688638,-0.71677948237330369,0.10211407619520946,1.6836958139809814,0.33376045805501775,0.25433129729147014,-0.35616257606981161,0.79796414147037809,0.24051285071330589,-1.0128447874375643,1.2173508066564305,-0.33443469546895016,-2.9286214875712711,-0.75952425385764821,-0.050377026233524649,-0.23553132320749426,-0.83418489660280515,2.3916449325049962,0.61549139356070615,0.24688526774877459,1.0138473203511653,-0.46276505283926789,-1.3814193373621617,-0.38035372875641188,0.50452099860485866,-1.5557777285986465,-1.011115065453839,0.67356809400382223,0.28012892672063389,-0.86346917253327882,-2.2037185820689413,-0.58057932782374189,0.47128233928468705,-0.87543927736446225,0.71479463446126723,-1.3522421017013866,0.58104005136213666,0.44971678936934606,-0.78258789349925539,0.5690084359094314,-1.6640840988817081,1.1124877399787012,1.0633473104541078,0.39683246136801137,-0.45678631447936791,-0.72374952561504846,1.5019082111716011,-1.1821077532898221,-0.89445640530533121,-0.7528743097042061,1.3268180895600565,0.26316515101704513,-0.34477034999490186,-1.3681162403199463,-0.43827855373764557,-0.44250616908369955,0.64419033997394559,1.3069214531321691,-0.41200112573796616,-0.91717605312844641,-0.46389468417601193,0.71374827113090655,1.074566100325155,0.45796733628440617,-0.32739956496540468,0.085267247468128846,-0.76824634800549796,1.0957107067673819,-0.56051235352738615,0.55030254151597402,0.96842617763136318,-0.23195624944282356,1.0117987742346319,-0.046281770106772584,1.9192318303740714,1.3867841873619822,-0.72043507079394054,0.25446549987977596,0.51615708521148862,-1.6658976725530381,-0.10576823653447358,-0.075080988660141776,0.78274226033710204,0.16473412511865249,-0.62921908854657271,-0.1613156686766353,-1.8887682561982342,-1.3026877451233383,1.4014816035438349,-1.9881040912862891,-0.12135844321268373,-0.81135085471232538,0.88510125817461838,-1.5909701195564787,0.42354765794027077,-0.17738850056562072,-0.79533918366099976,0.037288465084236312,0.65326903272846637,1.706487965592093,-0.45659891494177846,0.43193576516761201,0.52187745070559188,-0.50816972308497632,-1.0685388569925383,0.99954395099283821,-0.96735885785122078,-1.584904327171808,-0.8832161742336313,-0.55129512236352984,0.39545889432088743,0.21720294909219834,-1.966912005353185,-0.5311020993516461,-0.21048076987890696,-0.061122704936993344,0.61515454982052453,-1.4807616595001587,-1.6822697189219611,0.61104816275390583,-1.5078962512919452,-0.74439768861010658,-0.4709241938326108,-1.1692490944625407,-0.31206624620779061,-0.16320522526319622,0.32311397998404612,1.2102681396112511,0.05501577825351639,-0.10392955774540522,-0.28094224791559363,1.0783308019788385,0.19271127838948401,-1.5467631001225022,0.87626282305260561,-0.19546827700190875,2.0031006865034304,-0.12692769401028589,-2.5693851171676858,1.6972500086227316,-1.4074782778182755,-1.309058423163342,0.25491016639460717,-0.27635019618729778,0.24750460667850391,-0.59143982900496417,-0.91431702411442073,-0.36394585430076115,-0.69619396153244584,-0.077058052966505808,-0.12906849344359086,0.65903203376262043,1.3126313924261095,0.021348913547373314,-1.1088379211166246,2.2581891067890481,-0.55649024983823336,0.52822512430669966,-0.26526119230698098,-0.34157901123464451,-0.15029384006513749,-0.97626449783149938,0.095200578460039376,-0.69319889134257162,-0.63260771373810887,0.30339085093916457,-0.10835189683095127,-0.42336682353519023,0.79444342905336673,0.41878922564600718,0.0060171440638020907,-0.85627670512282739,-0.13003010941022897,-0.069473794846315426,-1.1122653756003142,-0.24132035424661902,0.62427793146635635,-0.72353203544110756,0.22925645064674663,0.25036029304181168,-0.39448059573282501,-0.07105194503517237,-0.38083591927433114,0.76988497198740935,-1.3766385260263325,-1.7341050150223802,1.6859492319403091,-0.0090105672982098046,-1.5562923139819405,0.37591720671342099,0.85204254130136858,-0.052750392029242164,-1.3158233410644553,-0.017947551480576588,0.29293697175297295,0.68662766325226832,-0.2022208427686219,-0.23996666587943305,0.51177065497234731,-0.46722783056977224,0.1480235728902442,-1.3036132586830449,-2.1695754692485854,-0.8379731765088001,-1.3295197037267525,-1.6734319722869124,-1.9126130869646556,0.14298933704373251,0.57335255553918152,0.12462451636776983,0.54858279368193386,0.78521737169505423,0.43000877553424044,-0.3347259345539953,-0.67336934992867947,-0.97774657234090356,-0.051672605102520218,-0.19966875835956396,-1.30203229184227,-0.72988544858540916,-2.3044376664153199,-0.63264677895023402,-0.72244272291585798,-1.5676378816591383,0.83556314828107592,-0.93915092367077047,-1.9688712245996423,0.79146729929558013,-0.77072617983321956,0.35665713574124863,-0.74970816985452537,0.11469272419687905,-0.50457019803730963,0.76228532638079616,-0.03545865753792591,-1.1729717728128062,1.3604079949842254,3.3458467320046803,-0.10389811160105551,0.28260352672297046,0.13965666071907482,3.0473150583464479,0.45012609279380983,0.27093616229497358,0.71183138228152365,-0.97939594363085924,-0.35221741939465395,-0.09972293610810691,0.60228700938906732,-1.003210178729345,-0.60402306228350866,-0.60207721077450504,-1.5142173443436791,0.31625523749221141,-0.40876901282950145,0.0018982867068624881,-2.0476789852224333,2.3645496907580155,-0.43370232284006194,-1.8678865051632685,-1.3599929070065275,0.14985074593078163,1.0971508330804802,-2.3405802301981269,-0.2921287414514257,0.050786943853919055,-0.96854178288630999,-1.3402489190031914,-0.8126168359135344,0.5104772140205649,-0.68393510642351329,1.1698460943775957,-1.7296265415416217,0.23499347573496671,-1.2332455969101366,0.97909201812590885,0.75113101324410059,-1.604442564161354,-0.576241256258755,-0.18729458448099465,0.94876620708277859,1.150472098079623,1.2597771097978538,0.17294081027031638,0.19726215804111524,-2.1036086383869361,-1.0209452540734723,-0.48071733685157964,-1.037135321466603,-0.40933748823547594,2.1081499622088371,0.34210186867877701,-0.15067954969996286,0.45982985660032466,0.84566564675137357,1.0529780682240739,-0.017060359708479605,0.68918234812794132,0.43979890472042193,-0.90019962456388558,-1.1084367697543029,-1.7883734693901503,0.15193692800121231,-0.25496685551586257,0.91649289744952978,-1.2615670544371562,-0.81767548128605838,-0.50167687288777929,0.5791021474165996,-0.056213782470904,-0.67093469805348782,0.50264435986415057,-1.7365867537395723,-1.0802790481439868,0.3223239487648728,1.2471271560516952,-0.034958810639285194,1.0525642974540106,0.94016883840486443,0.68208139627569531,-0.97380331328612624,2.3787632617268417,0.80379017799172325,1.5132260689383441,-1.5257270363820701,0.8881148479470683,-0.17155886679588847,-0.69064301424277874,0.45525235181252266,0.109043611820884,-0.55549554245943755,-0.0090700110722135019,-0.44936396084502778,0.24509822429447151,0.49934504165053761,-1.0243726397823238,1.4299702228657809,-0.88567887169286363,-1.1722026058956103,0.44289872364011851,0.40080890926245094,-1.1408513648456693,-0.49098689927254002,-1.6235985218263471,0.56665589229918445,1.6204692753780112,-1.4078411869160556,2.0299752076310198,1.1061563244620605,0.79265652545787157,-0.24613667411288923,0.22403143832577849,-0.17614220839560105,-0.30333585945337299,-0.95778267137455808,-0.17881922910327921,-1.9879488534852725,1.4510945197256597,0.57847441966030599,-1.1300545348258364,0.11098249835944084,1.3533278171159995,0.96903738124443461,-0.3573226061051703,1.0508419312228874,-0.31055055513383339,0.63688777546738284,1.2727656848102418,1.0809355783006771,0.081940898881810456,-0.17961219150642035,-0.88936479078725261,-0.13181224735719271,-0.26389911973477936,2.0659860732320987,-0.65947662644666605,-0.74878029065776464,-0.86722778386883448,-1.5760888012176153,1.0146213309946441,-0.072857880001533357,-0.37748124727371829,-2.2625802202553014,1.2418525896483426,-1.3696082910406,-0.45368245491386988,-1.7550552565103898,0.86198266850934435,-2.9866508260991296,0.13914341530679084,-0.28350625504285148,-2.214078133272761,1.5225773030684591,0.17439380293939924,-0.53412615186150614,-1.7397098412989005,-1.228754459691769,-0.58528499129929279,-0.97395324840914821,1.7107641866424117,-1.3997310906953759,1.6853300921911403,-0.47763023610669347,1.6182120194385281,0.88524871356874157,1.0002007838617089,-2.2297727734053341,-1.7676945161353945,1.2003700416227903,-0.13902157144403571,0.35422802159471828,0.2305738898425457,-1.6878090631364124,0.63844073735474571
0.31705338408148737,-1.3604462232542203,-0.46779442318432379,-0.779766907149547,-0.63023663422048837,-0.6636128739721584,-0.69370711870998369,-1.3254958551493097,1.2030570971361438,0.70054888030326001,0.75944955900564259,-0.29737318879197949,0.036716908755156479,-0.11592615422860282,-1.0080304787267886,-1.6170395856404465,1.0995652503508593,-0.70740142082936086,-0.36128636557196026,-1.1327256905148775,0.73837870901701996,0.55328541551279775,-0.64073850334543025,-0.18870633472147252,1.5068489672169882,-1.1464389145815381,-0.25353306594933572,1.3348956851954303,0.44403230972733299,0.94558671718302434,0.32545269710719194,0.35665751018095498,-0.85232292340083493,0.61149573231923438,1.0508686919730954,1.1850554104321527,-0.4038875947885962,1.2164268351920682,-0.16045691500440004,0.12504816224932502,3.2624602958462261,0.17703863101382197,1.835697628266509,-0.55064465729624701,-0.92344770971142098,-0.2379452061486993,-1.7258859528140094,0.30596432223482406,-1.0605049880887387,-1.4365986255376599,-1.115284003386503,0.19369671249313522,-0.093383459503348698,2.743937416410458,0.44731505741615818,-0.20641045618392614,-1.2029776692811194,-0.53161587622588169,1.0535470600943009,1.8834187303217627,-0.048524039506045377,0.83153512648008165,0.11524474965755041,-1.512113080052385,0.86300444774174412,-0.46548076886996703,1.0664263270944179,-0.05698484861232718,1.5598585829324705,3.2726808749905869,1.2967398308388869,-0.75427999983202298,-0.48888944828177783,0.23546572732491877,-0.26264812783245034,2.6878202544815646,0.58293153884282622,-0.0885368569255231,-0.63721216594895913,-0.17007915990225822,-1.0819466197789165,1.8837610072546844,-2.2072619566689506,1.1380012019132308,0.6642858082943085,0.8765861754008607,0.32487176118244099,2.0104718172460894,0.55874104438285832,0.77481543672446218,1.4980452798396571,1.1155725610496969,0.02818661709865455,-0.85618637128766006,0.220162547622716,-0.1964967267476318,-2.8208725881595424,-0.75420875224078654,-0.64141771082613874,-0.40681439919621082,-0.59154898328535488,-0.54244488812857272,-1.6789261827444408,-0.57614271810986351,0.232029806154609,0.20732428249159801,-0.93812083775771238,0.20898282302126053,0.5963239226956456,2.8870137904732522,1.9394045511401314,0.58776563947094373,-0.3862212387205502,-1.7063533605285535,-0.14659523786607329,1.3194453649650848,0.59076411504366799,-2.600379137635402,-0.78400215126241879,-0.077396649631926884,1.3222833090974373,-1.0061693045855737,-1.1622133112900617,-0.2281840514428457,0.84305797375756697,-0.76173414106936077,-0.63676938828290974,0.94568562163428516,0.14453282567503303,-1.4028899387044624,-1.4375801996513515,0.77210021554909303,-0.073215211028227659,-0.49889736180040939,-0.46473172936780061,0.70836333469193269,-0.98084620694175906,0.61338877448063922,0.42514955266565679,-0.40347175933985469,1.1572037607117731,0.27162905609152899,0.33837940617198736,1.4620828809180084,0.66702496472581563,-0.30366202093649186,-0.87799862319372457,0.48247574842361612,-1.6447623060444045,0.89210260958464005,-0.2704324125183552,-1.0422805842494638,-0.99982718470573773,0.4525181830704838,-1.1971640427863226,1.3343972762444534,-1.0448100958739812,-0.11629490017457304,-0.24569407714820191,1.6968754960883015,2.5279282872270299,-0.22690732763376864,0.54612021023524415,0.67518583042345193,0.46207421232987472,0.80529098315539227,-1.0194785240912827,-0.97934312182753835,-0.51164072891470302,1.6422934383966661,0.27555514281112714,-0.66441819945969338,-0.050453548117263491,0.2674959933899495,1.6373979232097897,-0.030411110146394051,-0.42615227622952256,0.17707116227075911,-0.60207890268673636,-0.52982507781042631,1.2451999629579782,-0.87114820880139221,-0.78130460328698337,-0.72777505969133116,2.0707695474944323,0.84763542446209494,0.34385605573074934,-0.7606914588904895,0.42799398580633896,-0.16967449567053089,0.25904297998919568,1.7179170522830531,-1.3382431513325701,0.24161203688120966,0.21567979823575961,1.147695132789355,-0.0069061686150740662,1.152410325272019,-0.00062876572103785658,0.13916870545433982,0.69727244097991581,1.5740876531343322,-2.1894736826414078,0.15588248671098814,-1.2068904161783325,1.5587787249696627,1.0694967609016737,0.66931295495605803,0.39922021541069913,-0.95154187893337772,1.1826726258823079,-1.2912971574780101,0.36175730234100612,1.2047496317428454,-0.53268469236729266,-2.1641677726254982,1.0435362610173515,0.21937199654196127,-0.585175114052082,0.54725040917071954,1.0632425245081554,-0.094709506564186599,0.56408922585171839,0.40391991261423399,-0.38824591994662061,-1.8940620934247137,-1.4390476104133669,-0.38577260229148586,1.0761653114419758,0.089403230858367988,1.4032100130218861,1.7752164342882273,-1.5350420402789098,1.9052086132870585,-0.66443731340112477,-0.55391277281599338,1.3305969036633019,0.46442361771795959,1.9256025657237581,-0.76990691256781785,0.85417339300957473,-0.079215042070292854,1.1701860169437857,-0.35345598920990146,0.82003341554657416,0.82535129163555232,2.0073543781992136,1.1668253044465418,1.2518139135306272,-0.4029948897755446,-0.70377434366361302,0.11799782739072515,-2.6536925254684851,-0.92183290152469965,1.0268899817104731,0.25230344462668808,-1.3942471705713575,1.1854116569663782,0.98705537590266079,-0.066622305918905805,-0.83312948985352397,1.2161421392909639,-0.34019208236384313,0.66217035949584635,0.44276562561512961,-1.1885647350728932,-0.21047884280014287,-0.13401187252692345,0.83608657931691832,1.0602716698556871,-3.2194448340078239,-1.2798854210365898,0.82076998200835705,0.07230976061342817,0.51979706835164186,-0.46651620186650866,-1.8675253522023609,0.76262933918626041,0.62257490499381596,0.73942198174826423,-0.93819924425649592,-1.3385644097324556,-0.28452532600721209,-0.14677761406295967,-0.19085090640002653,2.8449158746721062,-0.72186416418901822,0.21008833092091567,-1.7563502137868376,-0.26683226658015885,-0.38306616422623224,1.6775424631441234,0.33344552151994222,0.26983994020813212,0.38115392239435919,1.2783292850537094,0.34816267335508444,-1.5546226185003309,-1.1680237017902051,-0.34001109021754017,0.51191064720371504,0.35071275122290246,1.2218829948123329,-0.71647576398882584,-1.6593874135750533,0.16833524125747534,2.5778026101752851,-0.72321583496486375,-0.48846640878850128,-0.46547566398007856,-0.93703354161637908,-0.56607537912178318,1.1650345196623513,1.0008260792383892,0.26843837986493896,1.2503606412742279,-0.68572834032652241,-0.54693551705709675,0.84715411511662619,-0.38284964203146599,-0.59482553138338057,0.67753090136561334,-0.88455986638646589,-1.3623049209649265,-0.071349375559258035,-1.0265004305196965,0.1228019049913623,-0.50523626364435448,2.0464735189562924,0.83484283176482132,-0.67515077050150318,1.1371972151800605,-0.46994337189933405,1.0050932558317216,-0.020584117708380742,-0.077972802778911304,0.37331638157219721,1.6826668428800733,-0.79744493492079915,0.83848263332724904,-2.2196110716244331,0.84957675253554155,-0.24508897718992956,-0.92463136808939506,0.23518725237350951,-0.33447907377886221,-0.68371067945135311,-0.73534757058420508,0.13032362749557197,0.12826144064895226,-0.46973860889807384,-0.049862666892452848,-0.22490534703495027,0.43653111807455186,-1.3753147174728257,-1.8650440889562598,0.63538241025994058,-0.033573440509694658,-0.96640399994427229,-0.13918510663128544,-1.2863974940186667,-0.44020663597101811,-0.042335417492209704,0.54682467783407029,-1.5918037395704328,-1.5231214838510785,1.5246153253789487,-1.3677211567246812,0.67487964039609027,-0.04623226968305482,1.9995067641669786,-1.1282992898717374,1.5373598674335156,-0.74531484161695671,-0.61729401879213697,-0.73834251809393203,1.9580785778270053,-0.19665960759069892,-1.1981394330318154,-0.96953076393388504,0.18823402596813066,0.85601191445072955,-2.0220011846300134,-0.70172301258746506,-1.4510042402204126,0.10056062635278906,0.53488312426517104,0.0058327937938325936,-1.1224777398055579,-0.89725774757151744,1.3764583869826232,0.11039275148900114,-1.7418030277393342,-1.2945787680773346,0.970339542435535,-0.5940888393099002,-0.26015889112994889,-0.81120050267796662,1.3162798397460198,-1.2433942315176989,0.30902272204064191,-0.12653970971452369,-1.1237439400461533,-0.78435023862147213,-0.69250035210269401,-1.6712042673294558,-0.20589682928758529,0.20547579109528488,-0.73523725295641151,-1.138917002656519,1.237250644279787,0.51818251793842496,-1.0288568148797885,1.3827106610043378,-0.37221481555947583,-0.69096797763605444,-0.41427194089819863,1.1594327605869106,0.47139187872000154,-1.6512705703983546,0.58727254520902405,-0.42659509386568878,1.0458579212387713,-0.42466845074398829,0.73830874991643325,-0.24006910715393534,-1.1808170902145805,-0.60299450932617626,-0.56609518169869166,-0.74603025054691741,0.39083597041542506,-0.752069667395594,-1.5407864154149873,0.88657756707345559,0.023257418166657606,-0.38784091044380148,-0.45940615679366065,-0.87192895503840329,-0.62529968627669685,-0.53793241386177615,-0.25454113713345011,0.83727749050642009,-1.1259064305798274,-0.048922556154945368,-0.65698939974946124,-1.8731310011763906,0.3028586914318277,-0.51581824179175151,0.0027096662031457857,1.3514200373235921,-0.7632062686744554,0.13790680360635579,-1.7435186014822763,0.62535306477460284,-0.40571991456438183,0.10115085557767384,-0.84763839306690114,0.70432760315711174,1.1584609809307156,0.807324869028203,1.0451702724394198,1.1162366714845415,-1.6036511308222701,-1.4608102447683606,-0.34478726837982937,-0.91880295581048399,-0.36897834997820234,0.16937039128713147,0.39655093815547504,-1.7604969746617376,-0.72650363144830454,0.84206871893086133,-0.61245782757132661,-1.2318864936432281,1.5965155456917219,-1.2535164542661157,0.64769324827548613,-0.6764652940697834,-0.12077390516770373,-1.9377148934165169,0.42415940030309934,-1.4766374128180879,0.68216793386984487,1.1533776565986926,-1.0080283661680456,1.3940694960622717,1.5044745586070476,-0.16473664244588149,1.2705708013656112,0.22476276351457367,1.0483904569885221,-0.87564760576613332,0.2390608906482031,0.05543646672437394,1.0399848786799255,-0.53523010904149071,-0.10850318225540882,-0.027569924461174403,0.59859336845075095,1.1780122508842523
