-0.49885588475460274,-0.26026872413023522,-0.92801054295149898,0.93754445097023331,-0.77398146121750255,0.65862861497876113,-1.3786684757031609,0.58125579035730357,0.67490300767337907,0.71644891948357314,-0.40227211864609252,-0.14946832311594979,-0.21462352232407164,1.298135722295122,-1.6242222403528246,-1.6201340257580006,-0.23540061280569258,0.89189743328639182,-0.074566199556392126,-0.1032980560133144,-0.31259372709843131,-0.17759836067761248,0.67978403164303991,-1.4778163740025898,1.1645645564652878,-0.27402206130542722,1.0052756216012353,0.85242355572152606,0.9171635539997095,-0.4149288351722461,-0.30695006217402404,-0.94394920504422475,-0.75343974798327551,0.68166233555545852,0.25125396146283513,-1.9531006344885733,1.0115685739412799,0.2614148830135466,0.071412606321255873,0.22693098641035747,-0.25953878041950684,0.54916875510552243,0.17979297167485242,-2.0143084110771587,-0.94538947269680562,-2.3582875736202551,0.23553502770956727,-0.29269326155853381,-0.03131000726144316,0.030250623117820685,-1.2720969532470814,0.53430136799515526,2.2030220852587648,-1.5347887729533758,0.60197193647860581,-0.070521127503218761,0.28271506115428474,-0.14049243618228366,0.82500549922863098,0.19289650382911833,0.027859166265114442,-0.83264445358881134,0.33547060082950969,-0.85562831743568735,-0.67756738514741077,1.1091660244895059,0.98967466005893134,0.78208182853770192,-0.97177559034252992,0.82520555319276101,-0.81157975527366566,-0.52491079797597318,-0.05774635603772852,1.5953572760825478,-2.1989644428279793,-1.040747527614414,0.12392908127752751,-2.0290046213929407,1.4465302799180459,1.0310362276217575,-1.3691139924388671,1.0495594095771477,0.65558733456345453,-1.482508771244313,0.37775745796719101,0.34206957667188315,0.76429481533702026,-0.25326981787454417,0.76816865253634692,0.52999839028378659,-0.17978749894065799,-1.2513851341061439,-0.1210933437218356,-2.3235268623095564,0.93904531868163144,0.060997374437739053,-0.7626823836409824,0.21356340120520098,-1.3362651893205553,0.25016885832160374,0.64341570885512067,-0.91858859394801506,-0.038804386088002747,0.8485810547863164,-0.79089150438576716,-0.19848522533077156,1.046783385379646,-1.4746026175968878,0.28729545060863199,0.39959274021427077,-0.37450892458210161,-1.415066259811119,-0.30798789024496853,-0.12479414091005848,0.14091873795684909,-0.085978787323305494,1.2244222578622646,-0.85340914990289829,0.88560411489596191,-1.4113347699774146,-0.36438691575365195,0.2816226775111566,1.1930157447372725,-0.89527238705369416,-0.68471049080877455,0.37329388255119134,-0.36878267391281544,-0.17987209003901572,-0.52896936942524686,1.671046726671485,1.7692122940388684,-1.3097056256120512,-0.058790042345758027,-0.4332899853375039,0.086763085705078041,-0.1846929370513104,0.95106663821062776,0.65345969303449747,-0.24689765643201228,-1.1127885932746377,-0.11576517009833044,-0.2423057789697339,0.15884291472930109,0.3643392728325483,1.7875689327253561,0.63943157615962054,0.5210925001690957,-0.48992884708696416,1.1092147042582072,1.4281995232125293,-1.3183203346568433,0.85769135471580504,-0.58696780600858378,1.1944154291464637,1.1784116548013464,-0.64272952733317634,-1.0105078734948982,0.2419280348768002,-0.31573348391795014,-0.26829248775852882,0.55205053341300203,1.5241995238418822,0.95814732022518323,1.4806951018970469,-0.17868953100995869,0.77962620052814313,-0.89893769510929056,0.70876308423028456,0.51202372556820908,1.1335841919353078,-1.1828942675682892,-2.0600162037861507,-0.80894714341346885,-1.7850404833746141,-1.2623451645856227,0.13396586552301787,0.06407259430039422,-0.47517275330588499,1.1532195146189439,-0.5532546080482611,0.67828414707220719,1.593929991684651,-0.88059303239599518,-0.42903603041116267,0.48702146882027525,0.32043852213568158,-0.67788105941376886,-0.90880798497522874,0.63292732821575959,1.1458628416725634,0.33769025433507854,1.8530787878513775,0.88911015424940731,-0.53346714269906548,-0.2890328897476353,0.94674657749023194,-1.692673952050098,1.5935546789938981,1.2022042987671528,0.59103255498966878,1.4190738864321721,-0.30847854355698406,-1.9794220271539607,0.17939605800727895,0.0095931739639012661,-0.35421433292560112,0.91443918365834342,0.28729577970653897,-2.2904174118252594,-0.074563214471334446,0.25326562176402673,0.76278076425126284,1.7739522795545928,0.69034922868958759,0.057672790332886921,0.1251479267367781,-0.43208966280328487,-0.3288753993327172,0.44826414216264271,0.72568977317666206,-0.48929411908720183,-0.12685949778366676,-0.11081833604960015,0.73925608971191048,-1.3624466035606129,-1.0218260545346427,1.2925155894486871,1.9253319130849591,0.61109033314814409,-0.61962273138899449,-0.041096195840340452,-1.1686149981082008,0.26775803310401364,-0.42603668918445109,1.2436689194811532,-1.5416337432938305,-1.3119643182122935,0.94627175248357287,1.1258352863785575,0.26471653522998417,-0.43350815195650994,0.23137901223781254,-2.2066326891447523,1.0451018848179725,2.0817734292810814,1.3525029774336561,-1.0562548734733999,1.8612156523152725,-0.095080466214734205,0.59994050552762279,-0.24584927559205089,0.24347913359797996,1.4373347264642424,-0.30852188052598833,-0.24743842946963709,0.88232227288889631,-1.1725558263747784,0.71022085024954118,0.18839920036731267,-0.96066321078614902,-0.1263797770738575,-0.33511828168726415,-1.8297280831497924,0.0039622973607609836,0.080421063355718525,1.0511582154536516,-0.13169054921314829,-0.59991336439317144,-0.28622981332957875,-0.63750385246231711,0.29987566217860279,-0.66435607618666215,0.98535901548467975,0.79437751551676428,-1.9257899551019446,0.10761527406814739,1.0546580261678864,0.20532210628956604,-1.4336080311139332,-0.75134869522571046,1.1192879729242682,-0.41073954410538493,0.11112003350193257,-0.9921183748273853,-0.31371161705646172,0.084695828260359013,-0.46565180303161541,-0.3268983909840586,1.9162533534942319,1.6166596058256342,0.2300252243765554,-0.41033918467299191,0.095877299496120491,-1.5779386144134329,1.1417806337985086,0.60215105384812606,-0.92070065967678716,-0.37241999759490058,2.4706013236183528,-0.068600038517029435,-0.55539770896678364,-2.7600694743048413,-0.014789715217799818,0.4410633927808173,1.3401489712165737,-0.26120222630611184,-0.59524161479694193,-0.88234338000752877,0.27698365531237451,0.66744987387664467,-0.33106126328634194,0.61961254856969517,-0.97617154852102361,1.5191500399290438,-0.92878191000482302,-1.6165566731198022,1.3375238973826549,-1.7143525957341592,0.53564627521129504,0.31109079631864955,-1.1619143084560393,-0.8627287184860567,-1.1913026313030115,-1.1940150186934597,-1.9590158968098097,-0.17246079634586434,0.84818766425871051,0.39157232851319046,0.96698711982134089,-1.5496590915675506,-0.071821071401711276,0.49612551339275185,-0.44154399480190226,0.58741308182985752,-0.42048211731132812,0.34310764527948184,-0.058774213024261217,0.97326079023674039,-0.5666521846767073,-0.19413313173650465,1.7708133732808793,0.11310903780127907,-0.9752605597067624,-1.3739448276456525,0.75356912676398013,0.83333406213550343,-3.4492881480133444,1.1218470112782672,-0.12352280691100044,-1.0037535729256071,1.1339729827750957,0.75418633171699745,-0.41715980151026455,1.8681314904251527,2.9087531932591655,0.66747800080610731,0.14656771353620535,0.41954006972760277,-0.49620757761109019,1.2043447705832144,0.11968709031089808,1.0775839202608093,0.77308148258584219,0.75768416148070683,0.30516467988335094,0.47805643553931587,-1.0303295354988593,1.0042955922432044,-0.74688815345398407,-1.2221670819386434,-0.76462376227184337,-2.054021613084803,0.96995458229715403,0.47251837103988281,0.034552053071074104,0.69508166628018297,1.6441791414646485,0.5134343723044914,-1.2701522334549109,0.079370203258604083,-2.2840717778998507,0.918039804422774,-0.60292113540206216,0.015552568704684652,-1.0434919584442923,1.9191598641285164,-0.5294094013250249,0.089768544472404815,1.3054075891889372,-0.19215067432121608,0.5159685261847925,0.41744053612518733,-0.44424392397838147,0.98259378797154817,-1.5958563226427596,0.74250870673660585,-0.10288908364726441,-0.25884875377285554,0.61808114542500514,-0.77589747560837607,-1.0059696579679673,-0.30868828295693196,-1.1697841575602634,0.96770390343675572,-0.7502768637034366,1.4397940866461953,1.0571569659481206,0.94386359802289799,-0.79374516561651187,0.0026174525575645758,0.33699570058043787,-0.43274548296874255,-0.057389110661497246,0.1623061451113017,-1.6003405821610528,-0.73373663393524402,0.96426232881609253,0.29051620093876535,-0.61045633831080204,-1.1931137968875849,-0.12116715540808617,-1.0088694894073291,-1.3071108624505414,0.43460533641233912,-0.12991618156556078,-1.4565942856636971,1.4859722567130838,-1.2598955066601347,-1.5521817637143824,-0.22982885877980841,-0.10207539648295248,-0.65105415766476626,-0.53283875011475101,0.83852812937569277,0.18526832218909922,1.7532692295154599,1.2841616936072835,1.0396383691700524,-0.38552553489121011,-1.1272733998271669,1.3358304933101559,-0.12316195319362867,0.81260811948941858,-0.58555141443982783,0.3551982427486759,-1.9917815438052555,-0.26484079960273454,-0.33595123202386301,-0.71031299174730256,1.5038103639853211,-0.40767103656004516,1.0497232740018776,-0.93530504585772001,1.0903450069529448,-0.8635340794017925,0.60388844143984644,-2.3456842432779466,-0.86262706140861189,0.21338698901575406,-1.4337276621476356,0.64055627698865669,-1.0394769174855845,-0.22133793052891398,-0.068032286564346511,1.2218560979646236,-0.22602590498438063,0.27151851058446735,0.058110716469969709,-1.3169642672531239,-0.61621900342766567,-1.2938356651004717,-0.68756126883704949,0.9708060837502428,-0.05696217179209509,0.47839665376783547,1.0134137847907099,-1.0117811324252117,0.88021404121270586,1.280265180956859,-1.394203787469428,0.81705834596284022,0.20481616237754269,-1.1814976470658953,1.1788048574072161,0.02797411944732793,-0.7214162203892206,0.21364344163113327,-1.507652258523642,0.17523087480858343,-0.51075351725105256,0.13829349713821162,0.67329139406016836,2.0565096825718001,-0.91990706245291998,-2.4665296842946121,0.38770916815931672,-0.40287796063249237,0.65888265140392477,-0.66009081572191119,-0.32841777971117131
-0.69596314545881433,-1.4790006515861591,0.43928626066045284,-0.9925610751482602,-2.0465762911876193,0.22592327405980017,0.19181685109355215,0.20778921927298521,-0.24178555324728115,-0.48472972166377098,-0.73942667259525963,1.6740959210853721,-0.30083629470325512,-0.78269297017321815,0.8581647299887718,1.1203408236633852,1.5877189802690317,-0.51647634746772586,-0.021464797339371643,0.42828865446216141,2.1058861643589593,1.5147805750020362,0.13792674012478179,0.34598606013652627,1.7471187058814677,1.0893120812801396,1.3343168361383919,0.64984754498646491,0.22437549358682651,-0.27816818261398768,-0.43298233756035376,0.83016928295287074,-1.7155440146038623,-0.33624802392026676,1.3973727034533867,-0.16184014154658047,0.28539805448460104,1.288056347420627,0.448236546465756,0.10206483570870434,-3.2457909619241843,-0.82549651936122981,-0.57418049666376025,-0.66094605306201393,-0.32153897001429776,-0.35441344949861292,-0.42114676258719635,0.49888889640105194,-1.4475084346057279,-1.4488147953607502,-1.271596094847411,-0.25332712132422475,-0.25226378881339201,1.5783323654185293,0.32821439237208888,-0.59971892134295468,0.090806099093650616,-1.347092681060994,1.4385975422676132,0.065457295294343076,-1.9815309804205419,-0.5107625325638232,-0.54803550293289149,1.7994892012398271,1.0894019937683863,-0.48552221578088878,0.20512077734334089,0.0081997486374080497,0.90770392729172134,-1.1555942098261538,-0.86025550478985413,1.1269609626505761,1.5644962764904273,-1.7802327287591673,0.32953637008915349,-0.2272044269610142,0.72308009230185266,-0.32230372136516694,1.7293997357178097,0.25418820094685524,0.097165356257689947,-1.6246664254544958,1.2847937432858691,-0.95257964975331932,1.0214399947521058,1.8008283238172007,-0.61263474666652762,-0.54530204022435436,-1.2880801408515727,-1.4218219194151298,-0.27691192289142164,-2.0251337304391677,1.9738454334079905,-1.6034299452313006,0.79331190512015248,2.646642036682564,0.7996077596766018,1.8421708709946507,-1.6211704417903019,-1.9887368397830001,-0.45929991967361466,0.90868415538751934,-0.021653057203694735,0.20272096475675919,0.061872939096948916,0.37757698084709951,0.17344076200543512,-1.8141275046067833,-0.71990430492995949,-0.19564334465164049,0.30368824912946585,0.48119207973605943,1.7791465182480879,1.3563295238507049,-1.311351753667517,0.64318251320619879,0.14764073272070197,-0.23583379498936527,-0.89587288772197793,-0.37278270385175244,-0.76585299406058571,-0.17169133037507392,-1.6550352060377949,-0.91699105038629147,0.9895162041664215,-0.63435683590116221,0.55453752735521544,-0.10073147083208109,0.15956284994485065,-0.95821742323381165,-1.2132512183663859,-1.3955989296165214,-1.461794067683287,-1.0355930035542984,-1.3445027557706957,0.3122489169659069,-1.6343175764771658,0.59112601292126532,-0.42541595436441304,0.26324199555108141,1.4287953982893704,-0.60314449376159363,0.48402845582727355,0.76969409504389685,-0.088406760009832913,-0.011331407543259068,0.60608939414865226,1.6376907020201399,-0.059163065622464046,-0.37301305077361319,0.12800423299481695,0.6055925251775508,0.40652366185865385,-0.17749335366189498,-1.6466874045899169,1.1721554044915001,0.66140985340938785,-1.1621113154072482,-0.82009844865083636,-0.99529893905756128,-1.667683189426731,0.79129092495824382,1.807994046467192,1.6895784539974723,-1.0036481810291753,0.077240262107244051,0.22184860589034586,-0.38004554355542769,0.14861403921779462,-1.8114999065924087,-1.0872428621166605,-0.080042041193650548,0.076353207224369293,0.14359445545431168,-0.2005037149091316,1.9589023749063841,-1.2355630607810313,-0.71424774647868827,0.1806777138969517,-0.87642724339115596,1.6413663716581417,-0.12152378623789142,-0.68525553368556646,0.30396965008569943,0.63992752963797184,-4.2929683470663473,-0.68290393145150141,-2.1689626887593687,-0.34108306784318043,1.5660230033522726,-0.15421286443625559,-0.46517023566619653,-0.96747660433821991,1.3653214748304738,0.74839222468411548,-0.74620778295477685,0.95403142423126652,-0.020441014663648657,1.3205151896204432,0.93398706013734589,0.55704320124638829,-0.56690307697496989,2.8204045027687341,0.74115171584713502,1.7874671962382724,-0.45106953757632851,-0.67256427095437155,-0.24277135385919357,-0.07944619812773282,-2.5975947213052062,0.71591439804097234,-0.42408786366891743,-1.1574561577032227,-0.45456982118503964,-0.25621239942374391,-0.22458315540120724,-1.0933838258834985,-0.21261258858637869,-1.1817625292059515,0.86194816595532697,1.1268914427337946,0.053390684201088473,1.684562424047169,1.9425711283863474,2.0431836172260409,-0.11003135040333377,-1.5189815633720287,1.2362193003926814,-0.9145359891227226,1.2607031829054727,1.0905961152390331,1.9657572251156046,-0.57373938543395986,0.64105989910686723,0.044624584505043211,-0.89398484790181876,1.0330737633669034,0.4614464043348519,2.008863629042259,-0.47691608916220735,-0.32715205706508899,0.67922199085170709,0.94950154291308142,0.25538693760124781,-2.5683939984693507,1.3871445361748083,-0.36152281775305795,1.0310977142737683,0.27277206568106099,0.10787129325603713,-0.59498103967445481,0.0087366475872174797,0.7077854105887561,-0.7490809117568793,-0.92023162993375252,0.3162501338142541,0.79507644525495802,-0.93214198945114335,-1.1787928656495514,0.61877495322166109,-1.009954398793933,0.62855622639506403,-1.7746057138795328,1.6576886382937983,0.11904636776186438,-0.94686565074864992,0.55782123131082006,-1.3794551210295176,0.71824811935199562,-0.21384117201966119,-0.39048035679286303,-1.4471867111960615,-3.7974514948428229,-0.17299688772535599,-0.074502299776667696,0.15191473928735036,-0.89095487395876749,0.45516566896358912,0.97482111002149763,0.26176214559707561,0.56499705086669416,0.060006831462796936,0.94467232613235963,-1.4335227352058286,-0.92571257033771082,0.2973166089603097,-0.66542842018686299,0.4582343154031191,0.28999023362683218,1.083940042725599,0.0167712152117248,2.011393760530952,-0.39117116187911355,-0.3923780105367568,-0.82894178781754935,1.1711799373892511,-1.0628240495105206,-0.34345682367465347,0.072702464982349418,-0.042473470604850259,0.45160478303384838,-1.0085786323192816,-0.081581725313139092,-2.2232635955907374,0.12477567969584105,1.6966648541683336,0.13226789149997203,0.12449531909306263,1.263622917399944,1.1567694414591199,-0.22405551155839987,-0.8580530493761549,-1.6467795463107906,0.97797382227568386,1.0339254071271458,0.099385783359780044,-0.83926110410216037,0.87272253460826976,1.8986541560509189,-0.028230127143783878,0.28806189853378961,-0.16109201565112008,-0.15194859902041633,0.26209886027592438,-0.39790862661323012,2.3930315745024413,0.65291087886173504,0.50170936248318021,-1.5509825367283965,0.4981913909143264,-0.24936803167182808,-1.4884438614110913,-0.43459081172042158,-1.6941221762442287,-0.50227777359092585,-0.54403353803818644,0.51258837149493353,-0.79056601438558871,1.9215916222250313,0.65397883639706222,1.3188286781546357,-1.241265617774987,0.89158871008077378,-0.67896125273166164,0.62776321003354818,-0.00060921895742201517,-1.9586188833670344,-0.19015305762747928,0.052163113807404363,-0.21625459464657754,-0.69923385159358131,0.8625491863895971,-0.91772501828812092,-0.42701634314003856,-0.36660031004301036,1.228286287389952,0.32387136029021713,-0.85777785814244956,0.03350705432712154,-0.15405545263724207,-0.92365548128572694,-1.1655513413269136,0.68732980350228889,-0.26064296136169818,-1.6910971771112038,0.56961829067336012,0.038941437001618263,-1.1585740958304531,0.096578822453007168,0.86145362820223459,-1.5250124922416559,0.52802729261730497,0.54352635077701905,1.4109719288294134,1.2507877245822172,-1.2051858311113928,1.437920474047909,0.76077931222064721,0.24243781551125648,-0.68169605370347108,1.1890839304542917,-0.07226748388798554,0.80367730457749154,0.50130694300488265,-1.5087178448663574,-1.520136448102217,-1.5408277422993513,0.49669556349801686,-0.84155276977114835,0.47477248312520992,-0.46937120228050949,0.1822473904526945,-2.753497739009521,0.89972517516737127,-0.34210646905815512,-0.62775089856557587,-2.0980005070449863,-0.93201517102652509,-0.84140992732312381,0.84122732262030064,1.351478472904764,-1.1270262084650271,1.593446719887424,-2.2949727593067837,-1.5355123357942335,-0.88035249813848149,-2.4397229860218292,-0.61790298284166334,0.10944283991031194,-0.97175417492323912,-0.75491719721696326,-0.29521199656408303,1.0405462476157201,0.83008926207019307,-0.17825924369263271,-0.32166714406640257,0.96541807395492196,1.5191396866807971,0.93143894187741338,0.066725975182729769,-1.6915836760762422,-1.3083252240818211,1.560873737889394,0.34008785365168676,-0.063306085804497175,-1.0151415619896331,0.3077883513544129,-2.0237032891280924,0.72389542021161957,2.051751905040156,0.6765406969625295,1.0987001249326285,-2.2621699877210282,0.2450420136731408,0.8534705762968654,0.10942920082259985,-1.3142028008046469,1.9370691578610528,0.86912646918675607,0.0076176011820006575,-0.81083540272678878,-2.0997433892875357,0.32145840193897585,-0.88406449787128638,-0.1387028312688906,1.1418872682620846,0.84458580516568438,-0.21365688260744978,0.74597792983000455,-0.53703465119543037,0.24101869559885561,-0.59298532472871168,-0.30123341550310195,1.0964430589644263,-1.7248586316089749,-0.063011910092302378,1.0596394717869937,0.23764577548839719,-0.79659613320543332,-0.22103042504358048,1.1257962767029761,0.46166751117463795,0.0071936256769050601,0.1036515651377584,-0.062643490230277904,-1.4482576915108423,0.56937751458956232,1.5371015667312757,0.23535468506985685,-0.66271299225113856,0.58088360245374282,-0.30196138462243566,0.3234884670875729,0.90962642785975178,1.818038489053676,0.7834725186346867,0.50518047494783458,2.9555663541547448,-0.39074232566735934,0.55557589997194801,-0.46816663475094794,0.050603388482999979,-1.0389099679754321,0.81102388841410678,0.050975443759199379,0.38370500682288472,-0.053190796610692051,0.36433858005699893,-1.6328766782344024,1.4572235319271827,-1.5499886324885412,2.6560537387014418,-0.1231921600602976,-0.73769997989565173,1.0070579349061728,0.44892596362472753,0.82796227649214849,0.72913731509629787,-0.43679931080164902,-0.64681820936401979
-0.17544246378103032,0.54356545828463931,-0.57414747914443443,-1.3513491245870948,-0.9386176602235784,-0.76969387528102073,-0.64930313062811473,-1.369150432866358,2.5143012821836925,-2.5779540846668323,-2.6659563038736569,-0.72545203688584514,0.2524166928495003,0.89758187636542419,0.89536997710272326,0.41531810831753097,-0.78939238486362373,0.0074666809169518953,0.72760276994583528,-2.2204490033058479,0.51815514909145866,1.2503739446037299,0.71237647984948027,-0.27035594250782263,0.66670694670406072,0.55206823204208288,1.6432403086719156,-0.24020364323328575,0.75826457066257946,-0.53340175100804021,0.053528337690794195,-0.25505005084686294,-1.4397098120212124,-0.87880143679764078,0.30135474221151526,0.38788887951964768,1.2828556047917137,-0.42735463228270648,0.70219324670724659,1.4396794860255189,0.377252807914433,-1.2139671621312018,-1.0683035645845287,-0.33257257796284651,1.2656548828060115,0.90554468438947222,0.24375968892254682,-0.36158015384259112,0.22509789476304637,-0.35440003204300174,-0.60639892650113836,1.2098642572784291,-1.9737862498761727,-1.2766007951866574,0.53137083651776729,0.60953477892509311,0.1542232758347174,0.053217822367930608,1.2508942680578108,0.7860667451208988,-0.0053932561522942327,-1.1679497798429592,-0.68744346055413974,1.1451557718057594,-0.4196938776083935,0.77883490125163557,0.48965334033750618,-1.5183420105457011,1.1061715807200252,-0.77023523193249122,-1.5074368205177484,-0.087066136787606857,-3.285972468925634,-0.38838156266015628,1.0990692674963087,-0.6356369475018413,1.0000658079962852,0.41681503180845825,0.6629608972736083,-0.79164790387973616,-0.55145050305482468,0.24388586283575053,1.874989823711984,1.0511575630447461,-0.29512334591777817,0.9176907942545518,0.3405644646265969,1.1635006409783255,0.84069643602256272,0.72827965326782806,-1.4901880674865808,0.51661080387061153,-0.61617832785633575,-0.43942860578106219,1.9181723451323682,0.38945003037699161,-0.66768282648703503,0.30435159897669062,-0.74444257417542681,0.71518613260768715,-1.7190673337514928,-0.23685051342195015,-1.088670736918864,-0.80985457250552551,-0.54188287857715678,-0.041787558197592688,-0.63438004760017885,1.4025036684782279,0.95538842034963933,0.19308709753976422,-1.3421173823300803,-0.40078276836347487,0.82122122420848154,0.17797178990858617,-0.55648247601782685,0.094993259455476584,-1.7349148624794219,-0.67200975727431855,0.99119988293172212,2.0527356592167991,0.97042054925360433,-1.9326464616637742,-1.6867877437746515,-0.79904207621491563,1.3345678093102993,-1.6144386042785488,0.98127224516016343,0.15529982313306559,1.2206564055448776,1.325321522957376,2.5491601968673687,-1.9938185909985955,-2.1574972755933297,0.46412545066494132,-0.92330579250110845,-0.52340481200308153,-0.41803212352166358,-1.4568309228876875,-0.00033087448696594385,0.59511202822891096,0.14170523696921114,0.24729962497248051,0.089765156494725162,0.57387043021561401,-0.035715601359877586,-1.1140806792176325,-0.11391509863753554,-0.042830417328216179,0.60418355113675437,0.76806740009898378,-2.0012345227421946,-0.23363728738401107,0.58589695541432774,1.0293458507278053,0.44820050957446,-0.052271378422171236,1.3231280384405752,1.3094121793875928,-1.8121882340164761,-0.18110026144246413,-0.72379122672365903,0.98608885553989045,-0.92050868455753754,0.2605155614110844,0.2304052390332641,0.78776002876754025,0.38941796406360824,-0.77335607885926649,-0.75531370075254245,-0.095052814818989806,1.4510195486386448,-0.3030680346267921,1.4158253165244159,1.0833259326335538,0.34103941048817232,1.3241915712552847,-0.90786092930401496,-0.97652675938854194,0.85987134916764074,1.4950756785857398,0.11130033963733786,-0.23124098589594944,0.49128030658213151,-0.28113875518674514,0.50437495520245434,0.63951913712535835,1.3725662546017674,0.039144183972684286,-0.35442084673631463,0.084998496606859639,-0.91437332730323584,0.22671566633233978,1.0441095393394915,0.91590074107613406,-0.30510187774413705,-0.064967772025336087,-0.42595691278749537,-1.8642821989948579,0.27723771213854037,-1.6818888697961649,1.02845552871962,0.86936799049779034,0.8338697917421265,1.3167886949222203,-1.0847357123179462,-0.17835283634497334,-0.19830567351751532,1.6744531543277097,-0.1128092236736838,0.44642784483007331,-0.95654064418731122,-0.054389703038829333,0.17762797058369592,-0.5628113457857169,0.27368753554838232,-1.3053711674509174,0.39372800444378625,-1.8814180708670265,-0.84584910709930039,0.89774411888155126,0.63006594446340347,0.79079311896689619,1.3290861919008332,2.4119378476168207,-0.067026481078785088,0.64346952323010831,0.82469640910378039,1.3402924181943656,-0.55801293691920406,1.2151805942101086,-0.20391470118605046,-0.87335496732687778,-0.42093368399781123,-0.38898265685747357,0.80039489731425784,-1.0585413321091754,-1.653474832605309,-0.86638626726323575,-1.0572603399705831,2.2286454433255507,-1.1288049976163277,0.99239515446502891,0.25829122410466848,-0.99968067285894779,-0.048367360294981607,-2.0177696085060126,0.78437861100183803,-0.73769300660974779,1.6268290850818541,0.63946295829392319,-1.8213748951438316,-1.4290757153547866,1.8898821442567466,0.064499444050622037,0.29822689478975123,1.1206935461796925,0.70382320268701248,0.12080080715972115,-1.5969195804841534,0.064552119145471418,0.68249456875992309,1.4441642433012429,-0.46915607981192159,0.21547898585597125,0.78122122466762212,0.91623657734268826,-0.62601170369468784,2.0007931758828845,0.718394783124783,-1.496867041073723,0.17349778038801705,0.39193740792579262,0.23168265593933787,1.0966075997676004,0.85279142773963745,-2.1501875276594076,0.69995033122701011,0.035007789427779629,0.10248897562826483,-0.61971443979880625,-1.2500645872994469,-0.7217364201406794,1.7871962829381065,0.58568067291403969,-1.2232948783154307,-0.31633696088780328,1.0638515644736495,0.41742108892485669,-0.12825871368675412,1.0515422043489731,-0.2808319716954677,0.30115388656858011,0.98709633392659379,0.13676680430196331,-0.43910356653275096,0.10583362075254481,-0.95455983557244228,-0.23810056217218867,-0.43631384349880425,-0.46445917801978781,0.6722311716431344,0.35906802573174118,-0.12793794922294729,-0.86696560402667044,-0.2770654855067155,1.2081251974122986,1.650262194029734,-1.3528714821694499,-0.15150848310999665,0.72480117316530579,-1.4937445115224921,1.1600832253833617,0.57101659841274366,0.57817599254507268,1.1474703591913415,3.2814596749256366,-0.14535652124858151,-0.085527813791137941,0.014091550107116166,0.40051770504686424,-1.2341823468272792,1.2674071324730709,-0.94200451343219149,0.2099901852267369,1.209003171878402,-1.361171389483566,1.1604157506437964,0.38944409419911835,-0.23982311105655704,-1.8887988171443417,0.6834207757384495,-0.80650173860401675,0.092382382473077923,1.4365109912270262,0.22217918301087181,1.1025586336266706,0.10958957959325426,0.056138897557495931,-0.79715355545836897,1.4701239548799729,0.46624585503548138,-1.3066798563882087,0.94286385338440548,-1.431606491959831,1.0682563115712109,0.45564516430653162,-0.8482782965296114,2.3881080856867056,0.33528032719374651,1.2876155664250442,1.3371056370161012,0.38911383699877283,0.43989343010445664,1.6265690347881514,-0.73269709594016774,0.61325266265331635,2.3996656540244778,-0.23874930364992047,0.22574324855107455,1.167553695302485,-0.65720349437065162,-0.13117783704441979,0.61071218035750963,-1.119531009926217,-1.9880229729995924,-0.73836601357579956,-1.1131622757532358,0.39739684720240409,-1.0120257331889406,-0.2265900493737239,-0.23041508505917435,0.14173781025150872,-0.86178003226947908,0.26504776616949649,-0.6346593605914076,0.11553899513617752,-1.6721160345690196,-0.15184926479077182,1.6856834674298484,1.1516648045404214,0.55041198694561533,-1.143463066280513,0.65045120741388618,-0.95551654867251257,0.86189778219673063,-0.084441824513000224,-0.60308962595543858,-0.58148229222952641,0.17553524325367165,-0.29069039603424279,-1.1722590714713179,0.78242462037902816,0.20299577866755356,-1.3640401334149803,0.71499123270096088,0.29284657926966534,-0.15143140803697269,-0.084318074516952279,0.43054382208030989,1.1788295945535985,-0.32486652651160342,-0.95071548913691739,-0.29370079412882649,1.8594306774809066,0.48272676978644791,-1.3738319910322838,1.1332655632424795,0.24452456330000241,-3.2488320317940094,0.92406258871212543,-1.5532824901918543,-0.027112589875858989,-2.7467099416409231,-0.28849065287919667,1.5703862144560707,-0.043232103918709894,0.82475505148277206,1.7949647596841898,-0.26708929462102915,0.15266659952938022,-0.1224644492859729,0.57959415292584293,-0.0055446334608501091,0.24256976584441445,-0.20911646592645178,-1.1276354166699964,0.67649654748648158,-0.77755032013182246,-1.3611686855561371,1.1913201439051317,-1.3259824414862185,-0.55679007812510173,0.96333336537974246,1.9239072457566389,0.29184531495795157,-0.24441756425415456,1.5111781141664289,0.30858632730604346,2.4393795922817083,0.58630703585299038,1.6307848540745296,0.0047024939758031591,-0.4803202885685301,-0.1640457723407843,0.12119270455182993,1.0862782611705197,-0.20508419031812011,-2.1256425328632567,-0.68879958653850115,-0.046858145220200043,1.0703967714070044,-0.31261029268269674,0.82507854666690317,0.81064411684586002,0.81200992425033003,0.77473421850004787,-0.58432776185944713,-0.32002520210967206,0.41380806479243853,-0.11025995688508713,0.3218752820451849,0.31427517186887077,-0.83029891993763005,-0.016028875081280262,0.54858847704104319,-0.91847869962045048,0.40364843428779718,-0.70400543454421038,-1.04252508115667,0.18078481934224261,0.62927939592338789,0.53115302940348275,-1.7880503732002069,-0.86477851552204854,-1.428401184444849,-1.7319018160751225,0.85018679625268956,0.12414627597573961,0.39979465411509785,0.65895630174262232,-0.15489324925054321,0.39721147922383199,-0.045584727062130022,0.91039002310337092,-0.28511649094708796,-1.3193352428899923,-1.0897166090383805,0.31945549274197116,2.6468550190313889,1.2208857323193978,-0.92833646180375173,0.065582120914095376,0.4703867651641736,0.43383295341852757,1.0734573966977734,0.9905338798451031,-0.38828663622496035,0.78637245626803287,1.0711148234750469,1.357371654030028
-0.36850762055768499,-0.30568862692104926,-0.37832742983343892,0.16582779256626509,0.072763985475766388,1.9300929158188955,0.60205246458399075,0.42873840474483826,-2.124409498627355,0.87520952760958171,-0.61493991109819413,0.45662349178596195,0.056766730079910691,-0.13812187093972886,-1.9936108363069438,0.40867077680271341,-0.62344291512664274,0.32975168771494728,0.30113890103939861,0.17358425686101303,0.27375113778906568,-0.0099060781208222971,-2.4465988641158449,-0.20048633777394731,-0.45611294945464348,-1.5302343494952855,0.12750008951224398,0.50900560484671942,2.3867002304133247,-0.047804410437867893,-1.36303357779365,-1.3320989497238629,0.57780267042744715,-0.25553743824083691,1.4119458780256777,0.12611565807666131,-2.1892069175653597,1.6940088698446845,-0.10334712268644611,1.2354315187551246,-0.015464038528268269,-0.24818153619369746,0.48472820403267758,0.54299381224355481,0.094956831462717828,1.7302590450849511,0.58917015445912424,0.098927413133681419,1.0726111581030038,0.94978559996728118,0.74691004319199561,-0.75866671122357676,-0.96747802755657464,-0.45726072197786077,-0.2477634358400797,-1.4271304077510103,0.59164313360530174,0.89874444262727515,-0.42517669702328115,0.5665666507406234,0.17691837512620021,1.384620209419857,1.8511917313760204,-0.94479521552253709,-1.0574571105620334,-0.37864856357882376,0.10093460047414474,1.5186083751422699,-1.0904568903367944,-0.5449847529950882,-0.70957223796317181,-1.0028912918351562,-1.0224036425904808,0.71919477799951925,-0.81353461981308339,-0.33559229446615518,-0.91163036722246382,0.64458802772239387,-0.64165468535460157,-0.18347770370197644,-0.091627584702776349,0.85819166129091284,-0.71269878686680344,0.29804336400035375,-0.37289757278436153,-0.17181628558582873,-1.0721685964869896,-0.49761162510384765,1.9199027179652228,-1.0332400431979401,-0.40014698210626842,0.18421415936896215,-0.0052171129839348948,-1.5450137319876867,0.71867995966798837,-1.6561668657646247,0.96317319438811744,0.29802526259167422,0.013601517224497643,0.74012720463383341,0.076030612606925813,-0.21875271332163523,-2.7886295174196429,1.0750348935347169,-0.80723005838777773,-1.2455169097805221,-1.0449039927355126,-0.097337425735108438,-0.5756026955044401,1.3222270598441299,-0.24208606456790982,-0.40601693181193355,0.086199188210676222,-1.2152410289922893,0.051642449591623459,0.29984381777608421,-0.20320677163080539,1.6853247131946678,0.010970029408693936,0.6983926823757155,-0.2445972716925004,0.7447617987808054,0.045109423738697925,1.1144550989596054,0.37890958197385777,0.49647253545536829,1.5043129272216857,0.43706625809236266,1.0330724470825754,-0.17105293003430358,-0.87623546635521588,0.68430586521884063,-1.445905664479765,0.408323368985263,-1.3193660737354374,-1.9653877805109179,-0.083304492707285224,1.1094502313314674,-0.84348226475317434,-0.37918336899736554,-0.18717619370719477,0.10137287811153366,-1.3926341209662023,-0.035764992038670361,1.1404866042630735,1.0457788653932132,-1.9700908348799135,-0.67916497854699065,1.2957164588115453,-0.43601035782367986,0.14019774878350755,-1.8802854896644705,1.0496871081871366,0.066159970678828603,1.6848894154521319,0.069036616538685078,-0.84283310670081335,1.1270955963576503,1.9930700702851687,0.9669371821816799,0.18217974790207667,-0.57881762695127159,0.39874620916116371,-0.91148720023774377,0.29683335735679611,1.6023658114757036,0.573205732192965,-1.4587004440662346,0.93200501344777986,-0.42435048391464181,-0.23425468633215099,1.0913855291759991,0.65690473832313756,-0.3888567723222513,-1.0862484773601457,1.844423007512543,-0.37821411246239239,-0.62401791678736651,-0.43426587326824245,-1.2158604481062201,-0.97310589749732956,1.6047399675689886,-0.28353480442478218,1.0477603969717331,-1.8958662443204057,1.253228876566149,1.6031811039622765,0.38898738169366748,-2.2788743287856112,0.98401568300972686,0.63055594146339922,-0.14975893463653153,-0.66519286905246966,0.35505633129617492,-1.7645020462662118,-0.19251924840775936,-0.25675574673916995,-0.92296495247710542,-2.5425460102585782,1.0380388409719743,0.48016330027248,-1.0838865826706909,-1.0947982376629526,-0.011084728993344128,-1.3265975781225765,-0.85409292449950824,0.94597741641458877,0.64893897806147016,0.17077768132100446,-1.4507210265239432,-1.3464711435493908,0.19571044283541145,-0.085316049541770661,1.5652701436305321,0.16910231797612121,-1.2431139352009906,-2.4559364328017224,-1.0869426500115502,0.36475468446622261,-1.8524448600827081,1.1504492542503473,-0.1654790070005101,-0.78240476743689802,-0.88357437781739445,-0.89486466839414502,0.57436615191329221,0.98543747747362298,-0.39425711544529601,1.0928508206063585,0.37859457878410313,-1.3886822360080764,1.9131232051717699,2.8997407505392152,-0.34733481026970942,0.7406045139347639,0.0024017967341961243,0.087314112131712363,-0.51486862050799509,0.33168591161779259,0.30062006779032469,0.45303188776250825,1.2535102170331167,0.72628193724140988,-0.6207030099352534,1.2030168418598572,0.96332121332875897,-0.43820595387618044,1.1888034549582185,-0.66884509751386145,-2.9480166692602841,-1.32520079914706,-0.34033158830262156,0.98021821744237236,-0.060133399207784384,1.3602142354395723,0.23891846743795273,-2.2646486873247484,0.1723139187133958,0.18394368694302773,-0.95138358863955208,-0.16641445258575005,0.30517355078888503,-1.268819809431698,0.58954474591908879,-0.002035680560049497,-0.11993421431178682,0.083165929184138773,-1.6096035140221205,0.47065912862275844,2.1627530971450151,-0.74972051091936998,-0.08037511011345301,1.3992743260733191,-0.70138356558047166,1.1934854848773908,-0.22037041307551186,-1.8974765250812629,0.10744843688186655,-0.51200465660403638,0.60609987006988764,-0.78107838369027416,0.87940988387580576,0.13790536090427058,1.0795455992403487,-1.2828746346789324,1.3018059513041484,-0.077845656353927137,1.0182681387694017,0.050946119153663427,0.37495318189291987,0.70470566706227356,0.10623002464146379,0.058140385320358333,0.28120873228003634,-1.5497774139371667,-1.1622756317643985,-1.0357047828041119,0.11467384461669883,0.14962406291218175,1.1363244989548875,-1.9273990993388432,-2.4445053225634394,1.0133777646439661,-0.2685805854776932,1.5015067975070202,-2.4620629659282223,-0.60763861522140794,-0.013508033454798955,1.0454215483090368,-1.4963229834803562,-0.52616860008334787,-0.15754098911453149,-1.3352883329142453,-0.57201333290328282,-1.3681840901097155,-0.76440190910603489,2.159666233034335,-0.93323165982099487,-0.68286534384481212,-2.0114236192055732,0.14084170003847371,1.7599635700688145,0.19283753789030189,-0.15714642393810324,-1.6371227986284225,0.8058215102084838,-1.8178947469931253,1.0579734443605495,-1.8016193394068822,2.0083944845534876,1.5584986124821374,-0.4773802800339047,-0.53771570404615499,-1.2417094925996996,-1.1567216662779716,-0.40172612826960763,-0.72336606496309974,1.0706506593755725,-0.65704709156115326,1.5205350105215838,0.011728751261112799,-1.1157338276980908,-2.2939954749909193,-0.73387349010713365,-0.50455875542345274,1.8060082735178726,0.091821219062413459,-0.90885046514401013,-0.95680079166351295,-1.1905665148942752,-1.6718750196574201,0.34167287802214152,-0.79486568267221558,-0.96644321258747179,0.023890260128905768,0.77284053090252725,0.10509012384477608,2.3041851780425082,0.35472600199473064,2.0411257563295586,2.9601290091392491,0.82667301973468699,0.49728532614190202,0.22232838763923851,0.25663524838548624,0.91094612540374864,1.8234364018101821,0.72714328689773733,-1.7070947106601309,-0.40680131250225932,1.1208349248287568,-0.91222826400712842,1.5228359349399934,0.44645214280361545,-0.11251525223610519,-1.3268528337664955,1.4014896342903604,-0.98774490707084339,-1.0910727866056718,-2.5111947418510003,-0.95808310117508977,-0.52858058018982801,-0.34577370869285523,-0.97760947146839072,0.45840258290713159,-0.40856672608309597,-0.74829630083241438,-0.57417024404263373,0.65771904677662962,-1.0063473972756374,1.0222078703119239,-0.90076650520310531,-0.34451375633744141,0.6343957009534853,-1.7593549650760929,-0.23641581136063969,0.94586160583681789,0.64193509531226522,-0.57188454900707508,0.039416153368868452,1.3774728011594335,-0.76617640766343997,0.41559953470479927,0.47937093769977107,-0.53109189027281722,-1.2125426034085025,0.36749549360864386,0.27643470467924086,0.92779565862505853,2.3350649224566724,0.45448898961835327,-0.63721041114992649,1.008718721965558,-1.3176348349359157,0.59947701338043125,1.449114940600581,1.0117701001648409,-0.21838855606964047,-0.95292143637380278,0.15031698426894594,-1.1062321792616743,-0.079900690023290394,-0.050585035438020405,-1.9759910601825528,-2.4485451580986384,-0.3928252270668417,0.90123325348044481,-2.5467889980614391,0.22814078681913291,-1.3469010660449285,-0.44997948539000582,1.5442162739521699,-0.30119048839969653,0.83073604006198765,1.2188854290431574,0.77282227920217017,0.80062665100817532,-2.4510907274760649,-1.5995746276004217,-1.3298592366898958,-1.3352510098032957,-2.1222613278892442,-0.34812580070139121,-1.1117727639404382,-0.033908878258828851,-1.9795094938763635,0.071943332931314496,-0.0048104572555327839,-1.0509493083456625,1.0769711833655979,-1.8245250048242869,1.2598698070595138,0.62696449303551105,-1.4781705990909568,0.85485726611083723,-0.53471300691189794,0.19855218611710285,-0.77567644111645062,1.142876151500875,-0.98333427472253998,0.54615032338044756,0.31843508533542536,0.49943496816899369,-1.6871209073965412,-1.1243591564384448,-1.0147445634587298,1.0595947568661803,1.1535281641464361,1.1040205584963125,2.5999152931877028,0.72633311527173827,-0.97791374342485715,0.0015471711072994421,2.2938635290218654,1.2150778742870529,1.3964130354020821,0.15417720730281961,-1.6177429309820899,-1.4329038359870652,0.41840221357441476,-0.90674629122723549,-0.099691614938362261,-1.03362814549783,-0.18044591885829081,1.6579757927234835,0.43367644897025731,0.27587545123314727,0.21236821571727704,0.072800748252055639,-0.4902048381898324,-0.86314714103405277,1.2100747923704445,-0.16203074720279959,0.7769326305562424,-1.2478827158553476,-1.2665084959562742,0.24644468178080642,1.0117277909745426,-1.1993241213599179,-0.4099784484186611
-1.6428151437343728,0.32917470640052771,-0.33918192249823059,-1.1170694149211904,0.34230907868385207,0.085539283998611951,-0.3314403546981215,0.49278336582996191,-1.4861923847544709,-0.028551861817019474,-1.0245361525733712,0.38200660949081483,2.1242058071297945,1.0858888649281935,-0.458632368537846,-0.57720259024485066,-0.42084042654412107,0.23286051596860452,0.50954263907333641,0.32886074245462338,0.47383464559872535,1.0591821274425914,-1.0212911627657464,-0.90780973383897157,-1.7108739531800217,-0.11620428532387685,-0.16656562993273774,0.3489003568467563,-1.9679828535924391,0.97251553046639838,1.3934562416513647,-1.2198032791148763,-2.3777020837527343,-0.31329565815187793,1.0515144558676059,2.0284017372439758,0.29261814857825402,-1.5991487053022009,-0.55249281930454597,0.55871878886233661,-0.071013928756749153,-0.43445882478367953,-0.59692725404115909,-0.80481153853020293,0.079170414560409658,1.8005118959993649,0.46297200638987951,-0.46871092341676512,-0.64927587271348963,0.99686459761896051,-0.31984740862899957,0.21819148865039367,-0.6395830960471971,1.2565611506892596,-1.368669571081967,-0.10469215693284513,-0.024179276293550964,0.30483103334387424,-0.65575710790248631,0.02010164719697637,1.7901199681525037,1.2116584526908873,-2.6610111440677753,-0.2830185337478483,0.28833788536619953,-0.30488072119090898,0.18552135780792509,2.1017230294732356,1.1962977997149915,-1.4177441645724029,1.5401882218989156,0.46686837232498662,1.5766099709620753,-0.63910967174673872,-1.4952964436760847,0.46111385701126967,1.7766779223628029,1.2543344005197097,-0.61422102403351664,1.7778404092139861,0.022682458131473467,-0.10001336659077611,-0.002193882701806601,0.86458913067689913,0.64577312586097635,-0.54430726769861704,0.049141559257788452,0.27147343651545774,-0.39095866177939637,-0.043786906968741143,-0.31705609326757961,1.0146933201201307,0.25421281175136901,0.70723774028821929,0.10248079583129685,0.95554048684050608,-0.40678526673736265,-0.61209804207415608,0.26629137162054278,-0.13305086800649354,0.30880665969692522,2.4427382296483464,-1.1523250606747284,-0.19285073091371976,2.2700451413563556,0.69081461283354872,0.41095965395805584,0.16148596474862525,0.14626103774313129,-0.67814208810209675,2.0505241502086631,0.61041017254356145,-0.50968372608059409,0.11202515127935783,-0.62277068447540274,1.1069262936251258,-1.7405628864186797,0.78060788694607275,0.1851116072745112,0.76565036549413523,-0.38528890457435999,2.0676576504749602,-0.21782569569978805,0.31950387027719496,-0.80538348965140305,-0.33679266805134317,0.60222235319518391,-0.62102408090824468,-0.49096106521849953,0.52686887975215868,0.12999607044380207,0.028971317741314138,1.0138487376939451,0.35078328905570655,2.3223944403362191,1.4704969643739174,0.52084697164989191,-0.55002245225980761,0.048054847099768219,0.58282429909364475,-0.94771500648705009,-0.65893875383706979,-0.073734404032862605,-1.3627949950864673,1.2570943933062126,0.4529513352393208,-2.0009050889787461,-1.9598325919833239,-1.4386042885910075,0.27751921040626554,0.05918615038153064,0.089594729595698086,0.71601830416684331,-0.77145803269374746,-1.0201013609694938,0.22536151031872897,1.5797303720528548,-0.57101512942751431,-1.3906506562302741,-0.34581479890194788,1.7840777098256846,-0.68462561155640755,-0.57238778929366896,-0.39497315368753755,1.4032483458414868,0.71466765427960355,2.0776215066018784,0.2508682824605275,-0.58721347194488893,0.79433989150676776,-0.21164125739721085,1.8287848720619637,-1.0079274476411537,-0.55437271290210355,-1.3299641067830925,-0.42360750631101218,-0.55387754159032199,0.25762345094115813,-1.2133613669460765,0.26001752672807671,-0.21246201438059051,-0.61782069698570419,0.96239114154548611,-0.3530563804128955,0.52695665073502573,0.57723129364670289,0.49177486489654471,0.51863676696476257,-0.47332783224692715,-1.5850343398625473,-1.2433923723763369,1.175487840438852,-0.46023598946039929,-0.13790719632113332,1.4853778556470723,-0.68831692766108554,1.6668217727495425,-0.9704296481125021,1.2954748356094952,-0.5562491025239531,0.58895367049810543,0.85529982947940919,0.79929964156912148,0.52086795528353291,-1.6331192001455703,-0.21154667523305523,0.46381926110664612,-1.46876063591096,0.19810716728617048,-0.78926883739670406,0.75148501616338603,0.5765544810858142,0.36434063180437604,0.33620120429251954,0.18203434801800705,-0.5494434594920734,-0.45559926769199072,1.6946648412438654,0.38570872890012703,-0.65927590564647431,1.1563711681292386,-0.12535639474083971,-0.31252059326874321,0.88986815847636846,1.7645673726162947,0.23685040156714168,-0.12610074856314482,0.4013276297382844,-0.93847725626474698,0.47540425338011721,0.38768676847808731,0.86085348081155766,0.68395455355291812,-0.91213480302242056,-2.2067228560837111,1.6006751130769969,-0.40527684694844829,-0.95352642592241332,-1.4242518314372319,0.36684069926825902,-1.1085458446597958,-1.5343525969179788,-0.11573105625674895,1.1389603209992218,1.3284962041508825,0.57054623142036298,0.016745068082320604,0.28563176864526885,-0.26679245446468458,0.75781459053509614,-1.5740416599955456,-1.3953055705657575,-0.8959884299651224,-0.96384502978435127,1.0044099075504704,1.09858517072644,-2.0912795618894844,-0.74246151510479519,1.7181284105609829,0.46352020860980564,-0.91423085500959789,-0.0070606988775482838,-1.7795754703393458,1.1958437417942396,-0.17603991558451251,-2.0522488724720409,1.0864130551741158,1.0890853827358291,-1.1094027967170863,-1.084584367333431,-0.43206445493909862,0.41617195408810909,0.73134691016881614,-0.87097573654114779,-0.25543431976255049,1.0404526235292546,-1.9580495471474426,-0.30934260535132801,0.74330884303093825,1.7101445463220604,-0.39584863349513411,0.14361397119493402,0.75687628494520609,-1.4534421669329667,-0.62221136740012595,-0.80842785701078379,-1.070444379732935,0.32956212522480988,0.91472912730701772,0.76275294491644263,-1.8671044594637787,-0.88068362467371131,-0.33850168978961492,-0.22114334910474279,0.15952626931715941,0.77629331886622588,0.36328914514179556,0.31084761304348352,1.2418887632824247,-0.55830775375719144,-0.76268729397355151,-1.3250680641724681,0.41132912506951702,0.81825699988001555,0.30687570802006398,1.4465371452182787,2.061709446419667,0.1227869212988676,-0.25009731607545937,-0.34942211641893334,-1.4450223230865029,-1.9086879979271343,0.21329523293105188,-0.38378032268224982,0.042797789124245728,2.0440607388651713,-0.98416157455805964,-0.71765130255546261,0.69452918559438259,1.6218659010613437,-0.61789095012694706,0.32609467263478797,-0.30068163129477438,0.3004321529751926,-0.41931407343813121,-0.0086795679002907612,2.0538423504825194,1.1625711828402729,-1.7084208572765778,-0.25877656772648999,-2.113508483915679,-0.16762045557523797,-0.65009170057004995,0.93473366159213545,-0.24661957850509184,-0.080081773098277451,2.6236809757288646,-0.21593231249643685,0.15444775995472759,-0.58508506120205117,0.88475643126288439,1.978449622775861,-0.1258781784392089,-0.25999895356631036,-0.14915003204596944,2.0030954979945168,-1.0839794953175887,-1.9662305451047595,-0.58061981450428424,-1.2116228508396591,0.024542672472165777,0.80769460642460211,0.16729857685045041,0.16619577016508033,-0.35430489779438701,-1.6633081297235921,1.8841348081464862,0.85542979057818413,-1.2109437261726332,0.20351207730116938,0.50856728073045243,-0.54042654311017913,0.24987727129782616,-0.92902030023076398,-1.3671499125939912,-0.3104643389069438,0.15870304856233811,0.72240659325134182,-1.3640746636460925,-2.0095181423330004,0.35501908005384958,1.0045658507060393,-0.87694888070129573,0.35530127251159543,-0.50299849844648148,-0.35662404390965852,-0.3975420506175289,-1.3319866925907062,-1.1286601958118494,1.9641630467115068,-0.81814530020523468,0.20447285233445445,0.55055950103870732,-0.71955176938157128,3.4682503638871376,2.261922585803875,2.2561280056201527,0.4432376569851525,0.58144006726651054,0.32324610913145324,0.51558594547873693,-0.58318882194908273,0.71651608309999015,-0.044431607529983763,-0.67289172848533563,0.71172874162273592,1.5007740623740555,-0.088969586481594157,0.77767966069127881,0.31687664787198538,0.65035954471579305,-1.207465969303904,-2.390410051800528,0.3522667490330974,0.42218443487245577,-0.39732156926439716,0.40735973455073637,1.7001224037844858,-1.1041374018312138,0.38212899749809009,-1.3060283946567401,-0.6486983290701982,0.21857992360447265,-0.90621153570964508,0.070829017973970232,-1.7687021994600576,-0.23943677360592602,0.80607943012169614,0.073731082691142813,-1.5702110468253259,0.14120781986088429,-1.6908699727670611,0.78878681235352854,-0.55260217143446377,0.24058908023408307,-0.25411733550668747,-0.40421498308139203,-0.010430555519726444,-1.4237152433704112,-1.4370161858333763,-0.3718861395204468,0.51019624106086447,-0.88116801382862953,-0.43759745879928885,0.24792310455693409,-0.36557168099866372,0.31441434804829849,-1.9717170906046919,-0.10924653312320974,1.2774524310788355,0.27972644550254994,0.27262533471943046,-1.208686917671796,0.3937355412122967,0.75854492044015798,0.22598272530061306,-0.91545979822922141,-0.31027221004988914,0.096222541398784639,0.35384648974815264,-0.44834491390259756,-0.55138992194563308,1.3800982887898323,-0.47922346581023118,-1.0351284587738407,-0.68486702301541047,0.50181938891716127,1.0232589242037702,-0.33432050223537696,0.021468878497849779,-0.094071391250100375,-2.5277289086394461,-0.32236685635204848,-1.2580199063308259,0.091444979859187731,-1.0888827727882859,0.53642439091823046,1.0593065985108763,-0.1394975632578965,0.74013308147512902,-0.18410778816454312,-1.0017026992330322,-0.34691535299653753,-1.1037963041301757,-0.47347710236853724,2.166983781387648,0.063522147543949692,0.48528490545908753,-0.19989719161347769,-0.43355278137876829,0.68496892439153489,-0.13502437557955052,0.55001869236301648,-0.83754400279625918,0.22515218039198734,-1.2782545116771682,1.906589491762823,-1.2866896689598328,-0.33080395399802043,0.66332546293625916,-0.46083688845910997,0.2823737763054105,-0.1542336760656538,0.69271923730871399,0.87893205519085571,-1.2330612579690423,-1.8790129084375118,2.1319001118872007,-2.5302699525852597,0.71979529296996259
-0.11535776523767381,-0.10632150585610539,-0.68112868501137369,0.67504117173932132,-0.046792910236089211,2.0362663836858248,-0.27868448139740121,-0.27317151147604163,-0.69962099969214242,-0.26786099275274194,-0.061247575407123819,-0.25825737167733698,1.0042184972623285,-0.093983815632223591,-0.32346890323696154,0.23385436026980863,0.15068211601473502,0.76037619601189521,2.60071793069605,-0.23761304708981376,0.81331455826693977,-1.5800243530805542,0.70205756609178094,-0.14072756465181244,1.0708084272912604,-1.6074376855029981,0.77703232330784588,-0.82682964794362346,0.40149232242469174,-0.96426329335492622,-0.72477868742719265,0.77721185978493434,1.284283837856657,0.91987529692178827,-0.52035079970134213,-1.605650231654012,-0.99923642103176347,1.2277859457315956,1.4237837593230402,-0.81264986503123682,-0.60305827098316889,0.41786141913542207,0.38571267198667764,0.51613868237335914,0.52994696899321392,1.0230912015880285,2.0468604901575445,1.0311733560844085,1.5558582507763652,0.0489422716917235,0.7620620840343415,0.090105306743681848,-0.90786686890005552,-0.95255970540630452,-0.071560237200704119,0.23224366072180386,-2.2265371821208535,0.51641134634451646,-0.40566790881912723,-0.77469683906194087,0.48993534937271416,-1.0983080331154815,0.38229183384898391,1.6864754912354951,-0.96374034327567071,-0.039352522311296607,1.1241285829765577,0.081790935947087709,-0.19425449473720474,-0.5429335009833256,-0.0039966361300585746,-0.82596134879567196,1.3371260672516221,-0.37502919080128255,1.2778867122844693,-0.57907165708585362,-0.21084894719302738,-0.41450679344686503,1.8179605309039732,0.2145001011730053,0.45305816405407368,2.0731620987425474,0.11691471955885123,-1.0692353049985848,-0.68055846259940922,1.1351125306858385,0.97342466806088457,-0.6703596907682382,2.0451009215312896,-0.58999271405260412,0.012315268516041096,0.52790810536026889,-0.96702981535298382,-0.16719343905266545,0.75321886744536326,2.2964418667424646,-0.079035285372831027,0.86366898195793207,-0.062208846578550081,1.4451267106842165,-0.39177524666871238,-0.2609806447148037,0.025673415515411205,-0.11867471596367085,1.1485821640445162,1.2373977941953425,-2.0102873931521894,-0.54961916838763347,3.4170064878306938,1.388913249337538,-0.085907886683979903,-0.55738587497632475,-0.53384988160575797,0.5590930481219214,-0.014596321525353178,1.3113061222937252,0.16895147265790875,0.88688317775851466,-0.86208342219525869,-0.62153020004945514,-0.42685280946853205,-0.21474661543376364,-0.86245631228589181,0.92925674093556654,-0.10732132243777967,0.037055311676545209,0.18220568098863507,-0.029618245952501072,0.82070297903366141,0.089383707955709671,-2.1937048053493911,-0.5407546582520214,0.71198192064329568,-0.22623543817532277,-0.64060917791929661,-2.258138183074248,0.87981164975794512,0.66160932263755468,0.55991153085750978,0.53614201600005074,0.45155546843781885,0.19561537440108956,-0.26770787041868543,-0.16299617103216571,-0.81889975076469479,-0.99771472844752818,0.9233545994067649,-2.0726784269470615,0.78298919594081073,-0.1320923036260625,-0.048767398566719793,0.14215322357018023,-1.1315956792082289,1.9189413008151335,-0.18370820743169111,-1.744189627058677,-1.4185382682705132,-0.036917559543040081,-1.5659745647718204,-0.1259498110393257,2.4061519145767458,1.4446283862387757,2.1093537734015309,0.49630898362442571,-1.2695430245774249,-0.25740946129733833,-1.4583764540583453,0.72790580112961156,0.88541523412974565,-0.027306016996534503,-0.27920045928513021,-0.59829554765617543,0.11175840119756675,0.2967452707713541,0.31810190123005544,-1.2609510855521038,-0.69128210244872845,-0.67402216547497518,-1.0617183830668107,1.3887444197167891,-1.7824000250337686,0.024726600446923895,1.2079071883945598,0.63709824850738606,0.993573279106997,0.28070209241270083,-1.4134996676793583,0.92633642509823255,-0.066248231958327672,1.4182903086446601,0.74168356214609099,0.099580636810280107,0.43518820831800265,-1.304794551261738,0.37202431946749848,0.92641537784243444,0.75392026033633919,-0.95126855806362609,0.12633644999269236,-0.57987636220524519,0.8438969483753197,-0.2072550116633613,2.2341892791226248,-1.2536069536494268,-0.61461467710034989,-0.073356857748327717,0.66738451092863138,0.68643748019379047,-0.60981888802504036,0.95692471018265657,1.2101917216452671,-0.020643281762528408,-1.797741078322155,1.6043470197746814,-1.1290753141063856,-0.42608080814828569,0.60799073047611374,0.60442831246874318,0.4922181674366316,0.55840778618676357,0.28708941144449418,-1.1884467063810922,-0.30629289553478101,0.71579277220545712,1.5911552183291762,-0.88663991559264188,0.0023321247945672931,-1.0112958447920117,-1.4238423598268382,-0.45619086250116153,0.25687859646418842,-0.070643061270750207,-1.3657691350089793,-1.3959553459627569,0.27594424948405405,-0.02405491903206362,-0.52241607965175918,-0.092126047195872376,-0.14654736870556975,-0.88638991068459649,0.29753091173322715,-1.6631127968386865,-0.37570008221153467,0.2918777494166383,1.6158183635852534,1.4961641222239537,-2.1723063210245201,-0.80773609824133874,-0.19958699422249215,0.19635067966742883,0.040564680194593,-0.69347530545294422,0.62179089881557104,-0.4936150193398795,0.066823505954328635,1.0249116315387898,1.9226102126515063,0.79967358243133591,1.4737550437974476,-0.11045132336013086,-0.7997005733641539,-0.76597576703806425,-0.71680496003756178,-1.4105356302739787,-0.31050939437098346,-1.4233829370322966,1.5771846074680389,0.44146052858655666,-0.74466046854736045,1.8151167482697612,0.8346028809910232,0.44359989967810071,1.1233688227840837,-0.65861531349913249,-1.2128918745891606,0.83982028553190979,2.6148394799327299,0.55613535459266639,0.39489354043418623,-0.60517694265742916,0.44868127986481909,-1.5399191264811491,-0.59253563716063562,-0.34579657604331993,-0.017102704705082752,-1.3981223360221642,-0.31530217314057357,0.12784159531171824,-0.35319489313399571,-0.012929256439220374,-0.19956231173402997,0.36956291862547458,-1.1996816029763357,-0.82436112324445154,0.49256107249650594,-0.61539332225200361,-0.94519401612519571,-0.42304872847104208,2.5111182471134317,-1.8004626991686568,-0.28712160988893581,0.87451913402318904,-1.2652001203746333,1.1942794467136908,1.7343846343003186,1.0106454842601258,-0.19017066056731324,-0.61602753993873105,2.1682894324788102,0.48161367196402255,-0.97399779558364108,2.0119838267347836,0.04935497293208721,-0.89353170806912785,-1.9705783399354448,1.3765530509478827,0.59761041537589521,-0.049044673497635555,-0.06362801041791244,-0.28441637905767103,-2.2330629771685264,-1.1022736165927851,-1.152509973287432,-1.5945368608067658,1.9596782840503553,0.73175402526842948,0.029341752018410713,-1.0039079179972366,0.71686925428011805,0.94122948354693714,1.4955226034816009,1.903647274478353,0.031304009785282326,-0.45613233172565248,0.27102887701155548,-0.14731273864677424,-0.94007118637151843,1.312458886723616,0.24278923963858751,-0.43412123375812084,-0.017454144494353216,3.0392474740480178,1.2680720892070321,0.41353389734651119,1.3028106944280355,-0.84303138244600984,-1.2750026397769485,-1.1364939579288889,-1.575183904361279,0.27084795991698185,0.19783896302492271,0.2802010275476397,-0.4183490695327523,-2.1342741918131787,0.076015011885862085,-0.40242014896323441,0.067260511377736559,-0.57859617963040844,0.12638354131005317,-1.035520333103088,1.0244552171865049,-0.057600297608725468,0.35965762754707398,2.3543920582832727,1.2767173788410229,1.8246511966488155,-0.34390203759320681,-0.42067601347689187,-0.63873075500268151,0.70880410494518231,-0.47487587515149565,0.61301344355029508,0.53460846350376234,2.5243677961238467,-0.58511152330625893,-0.15449968841923728,0.4224504240103249,-0.9724830212491441,0.3936276367204064,0.87031679400038831,0.20450679583532794,1.4783244525404442,0.035865370386415879,1.7772963786297693,-0.75671031829923852,1.8785204735320917,1.1339992412757172,1.1715961215937538,1.4108349722657823,1.0228151199105084,0.12004244345490213,0.83656632812929499,0.8162429165227465,-1.3118055637973556,0.88236616063755768,0.52905418374739888,-1.4193190467722561,0.54288826368723153,0.79695764325798124,3.2671737439502526,1.1658821264033732,0.51322058218184363,0.17478833337829158,1.6934094755142708,1.9216397249610582,1.0325095853287483,1.0036389351404797,0.73227346447001918,-0.93660868230807037,-0.0074816516893201936,-0.69268355329716147,0.10913331859498866,-0.13466077484985678,1.480320712765969,-1.5688779316914347,-1.2286998163322715,0.79229396650072748,-1.0069215702297472,1.3646901983424122,0.47483977418187379,1.2488619795399301,0.47755548247726104,2.1701762090264585,-0.33474879677247249,-1.2276745220294789,0.41132965081910022,0.82145285181041106,0.29236453006784646,1.7615548633630378,0.86191067632585072,-1.3334682419159687,-0.81971094769600272,0.79033683388416553,0.12509525658874274,0.0090014862112100247,1.1233887708550088,0.14485949740869178,-0.45493414522956832,0.60840249540515967,-0.14292582003880663,0.032320026105220508,0.54983548894212964,-1.7920123782769144,2.522976152061609,-0.42889138075212352,-1.3523339909409431,-1.0173258726609482,-0.012576352089025807,-0.38109461459961352,2.5342515061967723,0.45058000080723121,2.220750491934361,1.3691949494881457,-0.58644393392297323,0.20843386980423712,-0.24326775477047291,0.91630000434812153,1.0494582748458601,0.97774095621851931,-0.82234645097318082,1.118061654744402,0.68436043860676288,0.54340853348471396,-0.90312858092925474,1.2580368365222854,0.55574155329956654,0.73858437917574049,2.129416532345886,-1.4649313203758534,0.20107041312362703,-0.3476821024752132,0.1512245453622956,0.41919684421713771,-0.8527908810030228,-0.86308574808873917,0.66951332402275399,-0.50085253866701129,0.63951449744725131,0.34981557624671855,1.227710609091228,-0.64641329325461161,-1.1534771233606373,-0.24690291756546986,-0.018136744875533937,0.024029311173373383,-1.1270209444348811,-1.92042675567406,0.38256587439694817,-0.40343481093128103,-1.9658756016998309,-0.29883698385264751,-1.244772712975251,-0.22083234626589671,-0.21013686610102031,-0.98983928114460251,0.64186708435361906,0.23594096468360537,-0.45826596415125243,-0.3444688936608834,-1.1134483131339892
-0.15947644337051584,-1.0484630125281278,-0.42348942774042664,-0.27515772894524515,0.88194649525835289,0.85835844946449635,1.8726133867793482,-0.19641726932311376,0.45024873834554607,-1.4026870247497656,0.10259854041565961,0.5043028753558777,0.12257730883717831,-0.62758615672308848,0.012069021003140296,-1.0803705529821606,0.52733488805060025,-0.015982326626464427,-0.32076209350416623,0.53849294636399425,-0.41738567883494948,-0.32534027606667093,-1.3704976574976633,-0.41778420710069408,-1.5468578470146583,0.42581501862767951,-1.3021218349893815,-0.035442134276225244,-0.3558300264845598,-1.2644465857131417,0.99046838031234241,0.51842168059369664,0.4838224626008556,-2.4090014684051959,-1.8640527993887974,-0.46180992056653064,-0.38599814276999006,-0.067280858744944785,-0.28883544101267611,0.28499633489099285,0.88827632438625514,-0.97428046388944556,0.024409958496731596,-0.82133637599222453,0.62022360250913555,2.6000532381213741,0.50638114501484088,0.69289303769987354,1.2090658380536183,0.18926632848616867,1.145050538124234,-1.0691855070179215,-1.0236125707662362,2.8766027082059198,0.20020403764386152,-0.51349720095682416,0.050065752858224011,0.22716219639140561,-0.17208173427086965,-0.31106354221756877,-0.54457769110045506,-0.23949219910786376,-0.23758079060201112,-1.8611605538004967,0.62911271126312496,2.0673368761141333,1.0118407102622029,0.60893079403929595,-1.0385418432069031,0.22798975582807296,0.84930499038840357,0.4280510001492423,0.35409476267932233,2.1281436396587132,0.013853194795452781,-0.78457767591705252,0.54474242933539119,0.44388240838647708,0.030476812982315221,-0.62011158289298285,0.39732368439642191,-0.60373083371326319,-1.5923619026011584,1.8632715896110745,1.2090151049457099,-0.030567839379209389,2.2379326780786926,-0.60575132074537774,-1.9548866626519137,-0.11634983298193065,-0.60529232544305844,0.2275833987917863,1.8167182209113411,0.70825215169514566,-0.042928597549340745,1.3685377815765665,-0.24164367402060954,0.56710157256690386,-1.2951595021662867,0.38399541038309265,0.013890153216682331,1.1641035669048845,0.74649859141221964,-0.83227229016453608,0.18111889313086005,0.23607763388947942,-0.56419186537423194,0.55810341365387872,1.378781829326607,-1.931774338453528,0.21054910143687883,-0.16269708074318406,0.441711447046783,0.8859264498775663,-0.25119308057629214,0.57058290396159583,0.28670795106621999,-0.79009913316543212,-0.47272430826170431,0.11667641632187688,-0.55138535517363652,-1.5076142622259556,-1.7635879506750114,-1.338652200704153,0.7757795354387591,1.1302253572429737,0.047232255344069489,-0.15671702744961569,0.11420517266034658,1.2778749155622147,-1.3209399264768458,-0.59743714978065166,0.71438369553989767,1.370835526351025,1.7422679254403401,-0.017627081905376495,0.17191602715378251,1.5421851381587091,-0.93282030740014821,0.58241255930335289,-0.18761557303131676,0.18747883135802687,1.4159939835265651,-0.20437662636052309,0.88565517028369456,1.4429096200082092,0.62928094018610903,-0.95657335458248283,-0.45372253518991362,0.31328878933271076,0.73211216515823085,-0.99058641251645652,0.027591266636193063,0.33033907640834614,-0.18155919015979063,0.33546311964602893,-0.016253473618528209,-0.1270403975230236,2.1195234059953951,0.1558112759645558,-0.47583097633284754,-1.4406772029221213,1.215170888399024,-1.769489753643642,0.57982044736066929,-0.71107195873436313,-2.9244773955308885,1.5245576701737964,1.1840648648716283,0.21916979930174249,-0.87591557899445638,0.29482836551555236,-0.18084290686854051,1.6581684722422065,-0.47254458321489529,-0.16643257158203145,-1.2055422556563984,0.32628199349735115,3.2363577759989854,-0.050634284346555154,1.179077650533314,0.63835536355416922,-0.10758485147021796,-0.63137849112185518,-1.108203157172353,-1.3255292867738679,-0.47086213640788205,0.61811977524544548,-1.058497514284473,0.75460563239611733,-0.54083096650813745,1.5508315498164789,0.28265625008744377,-1.0470451745891562,1.0888212254260943,0.24421130997308696,0.96518589656873499,-1.6172756202062928,-1.4129236005191093,0.26324147005544646,-1.129864610058495,0.70508854891612416,1.1372892573440898,0.079467302697773787,-1.8571337354416562,0.38006605440578822,-0.03651639620129301,-1.2492101835856149,-0.068163018846997575,0.86381241204018711,-1.0135700250287283,-0.208361835149797,0.065583255024489681,0.25248075110669366,0.7038991334284419,0.14072896554609221,0.20609673966860118,-0.53316180009299841,0.59804740131453216,0.8458291154390728,-0.22842696626560288,-0.037151940939755407,-0.38113995104295967,0.97238087310535748,1.5700400501210325,0.12825368440465523,-0.85792032826893649,-1.683824863640532,0.052400569997116619,-1.0034228105992793,0.4943986105203052,-1.6632707250415006,-0.55100519254107028,-1.6234282156100897,-0.55302075132587258,0.79667412424356243,-1.0966261123618732,-2.5995499429833333,-0.097849690265162617,0.75993315968896646,0.62213561969060061,-0.30654266524097934,0.51513813589377999,0.42757516239936849,0.1162411981933979,0.33954935409457504,0.67080162050181791,0.096870201741528925,1.127032209418837,-1.2849444303699986,-0.97092777498518246,-0.67253290720025172,-0.64994362408441386,-0.31013136450499645,0.12389742562967963,-0.5255111989047353,-0.68974981410973302,0.0033537329215884959,0.30313037613727234,-0.050592932068988961,0.54311778556377466,1.6651401528136769,1.398177890572597,0.44919146433728879,1.4907874036579347,0.79182164874643746,-1.6802772280553424,-0.53228959204950144,-3.4101098578200233,1.3755249372908664,0.042875889827308056,-0.48338012942052849,1.0514785519978489,-0.3186101506333946,-0.71145994767464338,-0.76837958751136293,0.032672074775048784,1.620360124968633,0.00018369798271327623,-0.018236053482152761,1.5763273572972605,-0.21967402160659796,-0.56508183070451357,1.226209754309485,0.61650049765394099,0.59428910900887533,-0.59152218538234214,1.4047580853787209,0.48502583931552568,0.9691703546253343,1.1074627287266152,-0.85102318761182805,-0.45551438974343833,0.21061550893106917,-0.076686058385059513,0.31643576114097155,0.6061392170039166,-0.85905695678034089,-1.0168487053630197,-1.2827300975529636,0.38027119306038487,-0.51486931194318475,-0.43898252123118048,-2.9081998747743851,0.06755845661238602,0.33572204817051288,-1.4227729759992951,-1.469723931410887,-0.69938986611854581,-1.3028608380859596,-1.8935711816568197,0.068792980557603911,2.2826466558379965,0.54690010414940249,0.97752065112247821,0.15909347568281929,0.31272392057608972,2.2209620151989937,-0.060771181955503913,-1.1130431390456443,-0.17488124127873014,1.207062147031521,-0.46196775026419207,-1.0379110191102083,0.53106119345173952,-1.4487715283327181,-0.84721200756385151,-0.51779916856347064,-0.10564659439456119,-1.0020020663054487,-0.90102778922075211,-0.071765153269771273,-0.62917499152223311,-0.85367996053435957,-1.2317081896709039,0.010460979020803623,1.7958605763330924,0.426501935585619,-1.5031878790843307,-0.24188760163291378,-0.74528093808026463,0.81542751258998825,1.8536941539080685,-0.43099687894331884,1.9667408282703083,-1.9310157759895581,0.5732161953796745,2.3709419370326672,-0.47934356308562492,0.43968332094354912,-0.59247067272987464,-1.4435059399847232,0.18996995151448431,-0.70536174481913361,0.5586122523436533,-0.7059868535464332,3.2872298044504604,-0.1306100219690309,0.18574552382659573,0.7530446801347298,1.1480813038409672,0.23288788969753435,-0.95998215385693009,0.26335212541950276,-0.090435074974538274,0.18749775454146772,0.40680665633795871,-0.49669997998933962,1.8773545622460484,-0.1358719240900606,-0.024583845835306564,0.30029016560146149,0.31987507373270002,-0.90811894465013632,-1.1989167076147313,0.28053748372546317,1.4805902882037278,-0.93180958048758744,-0.25064063050977808,-2.7341235378041282,0.16479425843951775,0.60468475076137729,1.138229208807402,-0.31035296295717352,-0.68582546114183929,1.1342696060410846,0.35937161108895915,1.4020275601207801,1.3335035424425055,0.7822540054492505,-1.1346207257106291,0.12717877239417191,1.1263901090610389,2.2053413361364353,-0.87695299856032072,-0.53460532339689759,0.54012864022382789,1.0305978079262237,0.1229062022411643,-2.0647512828600805,-0.050306626698747761,-0.078469313554470829,0.67675738876081237,-0.3252888826879986,-0.075957226397477928,0.12253772442437243,-2.0464363359508555,0.12616466230173681,0.43027270208548013,-0.74957075757394642,-0.79474676600985528,-0.25461278422189065,-0.074322698552104979,0.52728861128114024,0.35792869422642087,0.019762101640867478,1.9468723182969707,-0.57727106726343536,0.70805207293898376,0.022000344203302335,-1.4869469084563627,0.61390322631167116,0.15736960426467064,-2.02138206678304,-0.079465204145817633,-1.9037429421729031,1.4200041051296974,-0.75258376743181787,-0.21139812700032623,0.60786595607901206,1.2574557986699597,0.037484726114213558,0.87119267502894904,1.6343463144702171,0.19957615574139784,-1.9595000295808016,2.022536344154457,-0.28221673628375621,-0.72988574390418937,-0.77985621190038756,-0.44178178817079816,-0.41287689152272744,-1.4514192253519511,-0.58763963410619058,0.17751828725969451,-1.0412310534994782,1.0248275788057988,1.8488401924769391,0.68451606825368327,0.31311306585219717,1.6035074593604319,-1.2405060245916861,0.73714773533469713,0.34478529053968748,-0.48640301219849519,0.44187033655282798,-0.88855726860679829,-0.7000456906632615,0.032318949180519814,0.45204067271916837,-0.52105698269164347,-0.0092839347885528018,-0.5974817325680879,0.44789295959054054,-0.0096498748672837562,1.5840670062712232,-0.29688562054812256,-0.18107632071173854,0.19284721448245151,-1.2056817749880591,-0.41543393909404169,-0.3216079678472778,-1.5636392988541903,0.30962112071235331,0.84732527889088116,-0.91368042702797103,0.71117718825964238,2.0685309815233182,0.61443443174765855,2.3337712463983036,1.2827160496916385,1.7808667210581082,0.8571205991609615,-0.75118018880278736,0.36210335522606968,-2.2209262799487299,0.063075412716703916,0.96145204705987963,0.35272314857326487,0.98447145132436986,-0.86492302155067924,0.32333864122799011,-0.36184686763514468,1.2797910868131392,0.83801412710013101,2.9004424917826261,-0.42531676723862688,-0.083019945609385887,-0.45448934837715627,-0.81702092414494742
-1.7445553247163681,2.9188430832327614,-0.95693788537643343,-1.6744484811212006,1.9180092056599192,-0.73687286101068949,0.73911801203198113,-0.36805299560431765,0.10705727458343788,-0.62056031569425019,0.85557831361405778,0.5918894311098889,-2.2358904165262166,-1.0146615547826867,0.50885741584451649,-0.50983022661842925,1.547166582941871,2.5067797067096222,0.21211373364377567,-1.3094782777102998,-1.524863932227051,-1.0066574980197995,-0.53206537063949133,-1.0264681971610128,0.2397183817037854,1.2719438125240448,-0.31689015417163119,-1.6278335145696778,1.4849724393955079,0.93039565367814892,-0.97938493214483957,1.5408014987530447,1.0826233804400187,-0.54800034685200261,1.3350809133974426,0.17678798816786948,-0.90008916835411013,0.58769994342888543,0.11173452144815227,-0.68909629597313704,0.7389396320125543,0.74514732228699943,-0.5458561360884796,0.21577273685833034,-0.92666709795263846,-0.16058732906157641,-0.43755483914322429,-0.62719791981570838,0.54042548264745172,-0.16633284687885128,0.1133439510010284,0.15732921448328674,0.46706268199766487,-1.8712761552580381,0.21593626647720979,0.61931773810477542,-0.016242173788980852,-0.52172634014228658,0.09788637357989774,-0.27216453355776238,-1.0206435414711208,-0.45545164770930013,0.96720673684536984,0.08408716698832655,0.80543223469729974,-0.60692139033828618,-1.0720127562901316,-0.62922672129375068,-0.16121835657818309,-0.81888408364869625,1.0960662208666452,-2.0688138236622939,-0.4809066058841005,0.28606774634796617,0.8154513958032622,1.5902751139183533,0.60377777086812823,-0.42889998492409631,-0.98247814717773874,-1.8766547476160329,0.79595639361187687,0.24127478718571857,-1.0408565412465611,-1.7285884064633095,0.96565550602482597,0.7014169212181719,0.128137134357766,0.16406235371963998,0.15284871186794444,0.12129153725700903,1.25652810529125,-1.1701770152613287,-0.42204969687302285,1.2774253397472526,0.465236769064647,0.30278576018827735,-0.30619116492291859,-0.55062322770092309,1.336584179740989,-1.4950577894743726,0.37919582119163237,2.3730322477028909,2.1660052783989143,1.0274307023939597,1.7711428136349803,-0.083167755212934721,0.34225266810396721,-0.40472789741829229,-1.3470118758062852,0.48042205528950588,-0.35961894844612829,-0.044872315472234858,0.25949976535522884,-1.1711750780739349,-0.57160396952227255,0.061495642637187778,0.16402032351068144,-0.6887475350043798,0.11694076348707476,0.38896255600806667,-0.091977306863450584,1.2641437366371195,0.55311855639917451,-1.5830784045407098,-0.54990006372482725,1.2412109653138492,0.45276253694579705,0.0047615577000100851,0.11849033036881386,-0.24808288208567672,-1.133852864940972,-0.087724788945001478,0.84019928991874049,-0.58826470541121256,-0.39723130089263714,0.55229445950413381,-0.38061194745277366,-0.51642125828288477,0.14577574345685565,-0.85528454158274292,0.1730040756774158,1.1515470806759898,1.2903356894525522,0.81263421103874733,0.022045650051599107,0.22523555318573688,0.85863306599887723,-0.58042283946789963,0.056514482572113486,-2.628905160468737,1.7426069614560487,1.0081225589210172,0.19640173091083649,0.43571215042350481,-0.34662649284640362,0.25185441112564722,-0.055864527196263843,-1.1755310724361248,-1.2529742286568364,1.1436036806471896,0.079773972623952055,0.77012194926755773,0.30481939282712711,0.35881727121759505,0.65623022626975802,1.4532147297704356,-0.1644741097038962,0.23076494764055133,0.084576403603504727,0.281513931505397,-0.002659823335061449,0.86688518571178852,0.19744295287080721,1.2642662784245946,1.3955186232615746,-1.6025629436542221,0.80657895306997318,0.11753050828009548,-0.39890464125217601,-1.1846670888798778,1.9132353146274195,1.6156490609029617,1.1167242356566827,2.1731782656239491,-0.48258289270264426,0.50856312965738426,0.16587823993985373,0.98532629412486961,-0.39498136612889767,0.23520707783459177,-0.67493894963134271,0.31832968276939999,1.3604177829218853,-0.96477401278322628,0.6815586968582994,0.17039282652423932,-0.022595004545708283,0.23392017445548308,0.40033064947993341,1.3903754467971963,0.87424623664516832,-0.16875964151622724,1.0373151714106699,-1.421522037195547,1.0274574033444837,1.0979957344195395,-0.88003152187934253,-0.26328901071499933,-0.32011877178809672,-0.097364905341344773,0.37714759515096502,0.050835431480339241,1.4846556469990202,-0.80656850547059333,-1.7380700991297284,0.21015641359693304,-0.33228994620343461,-0.17204760435171643,-1.7388759085431442,0.62036140949627994,0.92384122555319204,0.12049183362884038,0.35454244490965109,-0.96405829759910322,0.69779512890134843,-2.3292937451821332,0.88637691377180927,2.0482862503667869,-0.91757649275150643,-0.13390691891964487,-1.0309918654623713,-0.2804442437720932,0.492326284086605,1.3694072233277612,1.9151757908032381,-0.81144072654614863,-0.88881216928820173,-0.80492915287158462,0.51496103603396226,1.2758410906411222,-2.2586460674874091,-1.5380359091480735,0.27268284054369579,0.28077361942466139,1.8202232257943938,-2.1742880710554249,-0.12487517929045083,0.55700824361888124,-0.84763223181039571,-0.34637465459068056,-0.91282237907210939,1.7693823914707816,-2.4104121158119574,-2.0716793130633837,-0.63574889616206376,0.33446592379798085,1.1190179690926576,-0.64732216731950487,-0.45482895695645414,-1.4700354891134779,0.44082048447747163,-0.41204416230428204,0.25103717291833832,-0.60794630278368811,0.040311321269938069,-1.1926665144889517,-0.75455160387585696,-0.73044512058276889,-1.1400949222596142,-0.72549411077205628,2.2876612266546896,1.4768153159584592,-0.58569532965694737,1.783740239789293,0.9632524297453765,-1.7593850185409703,0.74297382363208664,1.4197197781677533,0.43309353484245322,-0.76071276689283052,-0.45318784953657321,-0.47110142422877654,1.2597232103320881,0.00028898741116136541,1.0165585104568697,-1.2881742529121987,-1.8447966449748547,0.040524845320501907,1.1470643059201573,-0.31214551866096674,0.5389829022477588,-2.0739251298795325,0.70301133078877709,-0.56133959854658799,-0.43204070121912669,-1.4780409724125645,-0.080007864003736759,1.1773508335105889,0.23760617531692527,-0.46847560503307656,-0.68085636000068228,-0.54253108036574127,-1.4025907792014312,0.89772565217552602,-0.91194212801930474,-0.80223562030911466,-0.39137398805560925,-0.57553024651260831,-1.6140185837215086,-0.63923544035423496,0.14290702048720386,-1.3998765230215626,-0.3576116715404935,2.5603922155965328,0.80812045033701596,-1.4291963046421905,-1.1374257159031602,1.6253481043635942,0.3138630142522853,-0.025581901056663307,0.060251496408560923,-0.70598352494171945,0.17634947537616324,-0.31275952192291795,1.4367808994658042,0.105865434203316,0.19098629921451524,-1.0735288989520049,-0.61928096419623024,-0.22894042861107641,-0.42398940131547319,-0.28449227032131719,0.42510895767978185,-0.71765905589597012,0.59589876838001765,1.2794122008005917,0.97320619290205479,0.2119286269143183,0.13382356734605341,0.94491663765267364,-0.52802169540257837,0.24268198965073801,1.1018734198860296,0.22257277682798407,-0.48653410739195624,0.13131856918972706,1.0118882557498969,-0.59694915011271987,-1.1608322163369769,-0.59712413032728484,-0.1726819824989009,1.0623684215874043,-0.37087961757211702,-0.7625528936920789,0.74734917466734219,0.083126764190907046,-1.4820583501272424,-1.2255476448397946,-1.3570452963298139,0.8289313510639541,0.11573501415166278,-0.44553195354050401,-0.12537569563769901,0.54866327298835782,-0.47257175316944983,-1.548147709375981,-0.75697246428009324,-0.26863392475329767,-0.32625032300776424,1.3663019641796188,0.92906269474636771,-0.086444764324339535,-1.8166618484853823,-1.2297148417083643,-0.20849250743767844,1.369009013797748,-0.80596692149231897,0.93734152060193177,1.5513818412482037,-0.74296864760102765,0.23424637677976878,-3.6975247109508356,1.1631328523320958,-1.1242766839859641,-1.1415890392576757,-0.74001452385309452,1.2780967040892246,-0.55596993921808846,0.11242796528963173,0.21097589044739359,0.72406135029825414,0.96731862417423442,0.55605101477412433,0.87051074331978517,-0.83499880962113116,0.4138019742638987,-1.5812565676635644,-1.4055028644871999,-0.32028340538975114,-2.1409933481091006,0.18349211145515523,0.62655804082260991,-1.1112365720263369,-1.4968256743592423,0.17800658428112603,-1.0512952936377093,3.016078389766208,-1.7384226997878172,-0.24203657716924704,0.7231270127238667,1.643804051401426,-1.3626252679351882,0.02516851879596007,0.32398166906581577,1.0628276902011933,-0.35755109820378872,-0.17903803990157879,0.8319853514724973,-0.76896298362149107,0.81406543481174021,-0.059378687014074033,2.1828564018441505,-0.53104537243705818,-0.99628443108971909,-1.2239089191163863,-1.6269171486361791,0.022261053905587334,-0.34929287297960787,-0.5778881592239512,1.6762322007121031,-0.91906956480676194,0.39917302592794573,-1.0124042894350898,0.086715111856640228,0.14376387029758034,-0.92605568731775278,-1.2028204182313804,0.29178715447175718,-0.30418565158596111,1.0684902041965827,0.21672231414475318,-0.69198309873687747,-0.9837010545449314,0.11550091801482779,-0.16258484311272117,-0.11078779570904594,0.086757444868967706,0.58513205612232488,0.87364215207191387,0.63290930117825028,-1.3445107045302005,1.2224341453252321,-0.55768725012462872,-0.74451553688795691,-0.33583250264738035,-0.2975009379396934,1.1060073115218649,-1.7073244622279651,0.83695302642587732,0.91456648776404303,0.93489376967439286,-0.40132651764130362,-1.2324367177547164,1.2552013151772077,1.529630489017664,1.8212803292328938,-0.46634220466178372,0.038478767476529355,2.3879721349292562,1.1755066710267434,-0.080971222699924919,0.72261985769393544,1.3323868929818092,0.30927831195018807,0.8252642610098665,-0.32357749083821058,-0.22781713524145986,0.2382197107744235,-0.68601657909946478,1.3076651802679407,0.63357738143022946,0.47959141811833661,0.50317770026810971,2.3327231790938825,0.69173578207009656,-0.57959659673448194,0.78719018132163088,1.2552652020286115,1.1990159920848646,0.43631097589737455,0.37942802208799248,0.61855617607348179,0.32061516872059576,-0.17799217466912415,-0.82214958508251923,-0.62080131415354689,0.26586814392849972,0.40674865013887723,-1.3589832633716761,1.6537837834246232
-0.20684126457988622,-2.598696205533646,0.33949932861150356,0.057939810834499401,0.83234084662813845,1.9195792084681003,0.54969158971807064,-0.2278461509453989,0.34454330228182639,-0.87611302569054239,1.0547913929259063,0.17667759496171515,-0.93503793887245257,0.5564254496009583,0.63816747613064717,0.5888294528612702,-0.53323851113073029,0.32272856151160223,0.2477570279615556,-0.43254272301105012,1.6905976786582759,-0.07662179748408815,1.3698531840540895,2.2156864130172007,1.0067586159608366,-0.50501239076272741,2.0424798686720504,-0.81726451768093145,-1.571923155901058,-0.13134554005995319,-1.2292905125439073,1.4645734136953212,-0.22088529978034668,0.82090276744714652,-1.2233289924006907,-0.77872620034975504,0.98278685635808449,0.41694017113460891,0.91155383085225627,0.32713288025333609,-1.7826302464281409,-1.2953314555524105,1.2185804559624347,1.0646539699485762,-0.67541739604704876,1.8292782314294709,0.54529614949267835,-0.8449045227181311,1.6636612034200309,-1.6353373653477541,-0.20779566243604036,0.28327196028442775,1.0358287417978191,0.86580883920362384,0.38850541128375787,-0.22189914400599509,-0.70685505516790159,0.81070260959254214,1.7383620526343333,0.035056657497953093,-0.74158303008489446,-0.081828803880772599,0.89187665692483598,2.4299037109662311,1.6668036994841977,-0.59102362156672084,0.025823412252377442,-0.7594044291321207,-0.33402890652371547,0.90989008963111107,0.91379211383918857,-0.83717446189096167,-0.74640863589443007,1.2150808383164753,-0.75580743265677452,0.84350958507308926,-1.2262052695925982,-0.73943381592384294,2.141679268302545,0.9957411099843253,1.6441816236597482,0.44495634743431145,-0.42002134975962752,-0.033494015957976193,0.14774568347578301,-0.77233504807377762,1.1001689555650267,-1.5666705834782806,-1.0116238612425537,-1.1486535658096946,2.1735058014255721,0.17128689811254297,0.14741800041221637,-0.66681167406210962,0.77057773180059141,-0.4653260858542404,-0.20889885310210926,-1.376828572616112,1.3788878848875055,-1.1017451942047849,0.77624764262624724,-0.060344421649800049,0.8677141744930662,-1.465530628656478,0.36361684386849424,0.21942004982532731,0.3936622797806717,-0.65346495841856023,-0.54622127863118808,1.4528920155517226,-0.36852169424784381,-0.83061626653428955,-0.099320793382733558,-0.85741593367175239,-0.40723431060545889,0.05358393537541787,0.48428722406973368,-0.07939674660993784,0.71615568940890373,-0.44808288255804757,-2.0305521928995907,0.92508352363176238,0.14048988660454947,-0.82180007209570283,0.64863819356657237,-1.1533910656202397,0.96917872924801518,1.7381989516867435,0.30838346596250749,0.88969424739800862,-0.14634564203404468,0.45943407363657196,-0.86516852393987975,-1.4076581592893271,-0.55728329695624379,1.8985802497726494,-0.61452490137008187,1.5892664248734458,0.26581083765777053,-0.12242392779252123,-0.50268202045780841,-1.5892831392057252,0.37200384353600147,0.71010589951513869,-0.85204741200027445,1.8527793641934263,-0.37042451256948911,1.5422268877592,0.78718104970828184,-2.0400884882997548,0.47719745705430033,1.5872139300121997,1.0146828991626009,0.99948596551091573,-1.1477169273423771,1.4584056417546183,0.83374937889815959,0.20597778305979064,0.65718579100552577,-0.67625565223552608,0.27467702720880499,0.46234112142928863,-1.0734511105419204,-0.8404828496401614,-0.16545304558693411,0.4324003203585492,0.31453335189972531,-0.0050780593631266609,2.48852349119143,0.30628266311755836,-0.64373476652743855,-1.3127583206324283,-0.18762452412578648,-0.55552870469841364,0.79500058750144731,0.40211822974761252,-1.0512996396412553,1.8062092224513502,0.062603126487819016,-1.346297315979712,0.59844603763575943,-2.5218602203932949,0.38453530448500145,-0.76847681366772658,-0.98980886572788529,-1.3546934198451599,-1.3468745938274449,0.24943770332583298,3.3712079875462737,1.3706033567889973,-2.2730085267857314,-0.37137807811372914,-0.35428520820576587,0.18308053350988815,0.70785523585378429,0.14489854321930068,-1.2660312699296463,-0.67543403062513641,0.042476148885434856,1.6556426264027293,-0.16549335984148275,-1.0662750916160779,1.4228092399445293,0.43445567384158001,-0.7935954671827895,-1.9067158555842241,-0.88048396215521951,-0.31693488978683221,-0.80821789553653256,-0.82599534888055282,-0.04153174570498535,1.6367044915875273,-1.0104595815509407,0.95836659205950503,-0.4686830104859453,-0.13820143436766827,-0.37201454265037731,0.98848471007175087,0.25158553450757765,1.0756031571775266,-1.5967247576328998,-0.66876237415042805,1.9243547006596091,-2.460853163429408,-0.8379683760063289,0.45060244095966034,-1.5025428560224887,0.68701387031549732,-0.079821909806924732,0.077933793789992323,-0.77389634081701886,-0.094771045043178959,-0.47339408238661312,-0.88253506599149711,0.67562317313932252,-0.41343096356608749,-1.5581476583269591,0.59317289003575513,-0.11176114373873626,-2.2912208416365907,-0.24152061414062448,-0.99326788747496075,1.8950830716367557,-2.0575040806120031,0.87652679665801492,-0.045563612790956373,0.8580090527443287,0.42242308792349692,-0.068828169795921199,2.0542708619615797,-1.3982153498407939,-1.2728467973838236,0.1557696548293728,-0.30456652529371098,0.84549936161912098,-1.3659766821280026,3.2744347692017013,-0.41175708304139974,0.039191776625986101,-0.16651226199794589,-1.4224268343828164,-0.064355097286808868,-1.4288040212067528,1.5523216693753208,0.038687335436628924,-0.14307539665798463,-1.2051679939211954,-0.54913992580239424,-0.91097126842862675,0.21419885840940364,-2.01254511616572,1.3478359358465724,2.2183906248246923,-0.78382969578104389,-1.118473782238278,1.1982990094074757,-0.75103267966229403,-0.1239074610445966,1.8027746218276477,-0.10698062112566187,0.76350014985655046,-2.7191751579844596,-0.84385365689326775,0.31715989117391968,-0.48553193791367283,0.10823504053596276,-0.0088549335700810923,-1.5104767538038701,-0.19968981858586587,3.1520909089200959,-0.18567089615461996,1.260851374867314,1.6747057186667764,1.129340297994252,2.0264419346720737,-0.040150043761685017,-0.58173506196642399,-2.0776490981700309,0.93964311486225771,-0.88776003501560641,-0.10524554845310929,-0.58358236677613262,1.2360961221827436,-0.16121120006327946,-0.59058415641793049,-1.3660136920191417,1.5958998285449404,1.0281087135948745,1.0010829060796618,-1.3421723575597295,-1.6980904719032293,-0.54222306796624997,0.2614785914207321,0.12195216812612503,0.0052859579016410743,-1.4681155957931267,-2.0861590102379495,-2.0161863475228907,0.62636768780019181,-1.2294657885692761,-1.596828899060893,0.10057106084226095,-0.96117683554129962,0.50507856457654166,-1.2827183770309043,-0.03855848973366182,1.4229961330042449,0.62457933800184506,-1.8513335244273257,-0.66885605028219752,1.1553262260592094,-0.54227258945969603,-0.38455073990043992,-0.38307864796257041,1.035161230753795,-0.84265122565439088,-3.246232650715366,1.1451247875826205,-0.91441590264435813,-0.91557788016798503,0.82294792104118453,-0.39244972049957816,0.27566158415395392,-0.36345019173676291,-0.87066914693364883,0.055402246040510611,-0.14483238600824369,0.68941177545831422,-0.85214076671368189,-1.3777244852636001,-0.79702383735469362,-0.71161560171546046,-1.7934364228996094,1.4814192893958624,1.4769967294438926,0.51777974950777139,1.8789774579631773,-0.63785237245208126,2.0802304787369441,0.71249629241329082,-1.2753976025681188,1.0072029051251692,-1.1801849382508964,0.66560587538357463,-0.8358884954589183,0.42798009621328059,-0.23267575023674539,-1.0707154550873905,-0.33322523688894851,-1.1591759213138362,0.085230795980418814,-1.1144622010204126,0.18558840007470259,-1.1767637839701655,-0.072435300205278733,0.10530282180808147,-0.87640372795768096,0.41296369248317527,0.55186271046614643,-0.21880488930354411,1.8945716969578532,-1.8887064942595819,-0.13713750834128421,0.13629375022001125,-1.5241915581355998,1.1528320509744538,-1.5116591662286294,1.1442666249850886,-1.8749134594635248,-0.63920807967184323,0.37817512201492781,-0.75522319681609906,0.38783296521203953,0.61844784065526293,-0.47017672186605924,-1.0414025012325481,-0.26996171417123099,-0.97824068385705687,0.30767375913368628,-1.6583820483724725,0.22359617690110117,0.5227462381260195,0.79942586029320328,0.30315733575307663,0.18289655294152091,-0.30025337497543098,1.2909570589230952,-0.81624724025971618,0.42083045792202689,-0.83469262882578865,-2.6608086686427996,0.4531812924432943,-1.3940769965170083,1.1705873198760008,-0.59356722344762758,2.000575254199636,-1.2667863913758692,1.0086959636636268,0.54657562395806802,-0.24542179270002557,0.24197701341528083,-1.7165879556679742,0.20624350678917236,-1.7953772184224062,-0.49440753120904019,0.43753011834904065,1.6692054474174001,0.68820739804866571,-1.0555132060024526,0.32958838889994857,-1.457729046463986,0.24969138225335755,1.1572420391792959,-0.012872762324370851,-1.2124768348775439,0.0088591097863188646,0.79510142587851074,-0.34147514081626973,0.58882899334390604,-0.35748810744226917,-0.033671274804497227,1.3415563294724588,0.78896438877173825,0.18352154405494903,1.2442883800305578,0.68431116208492693,-1.3329175995042386,-0.23652893890773913,-1.1504956034703109,0.9379632314183195,2.0708274425435942,0.83356708530757628,0.53950045893683718,-0.3607217091029235,1.1872920881517557,-0.43887929993605312,1.6491521115954988,-0.43140451859561846,0.88580178960521849,0.19876258797759472,0.47225349707391434,0.94666559873695777,0.78966891309095955,-0.078711781423591795,-1.0325978024377165,-2.1180756880452227,1.2270111299105695,-0.4699212185920188,1.1012356339876772,-1.8658705764025065,0.53676759522446782,0.64026486727573784,-1.403504716142564,0.16450226981670368,1.2518300568499303,-0.19443582098849782,-0.45234076839408638,-1.3364255330350776,-0.50647740817074105,-0.83609685800302136,1.2539442667556138,-0.69547507229467898,0.68284062432560533,-0.74245953539517051,-0.14631924764458698,-1.7219430943067608,-0.84798594516861903,0.47203831336259966,0.3468099376795668,-1.3532292128143808,-0.48312744029680954,0.37743955520062333,0.5878862276452459,0.39109803623237294,-0.56394890083207072,-0.32621555609305175,-0.4574585516274105,-0.25966634559245816,-0.33282553663089276,-0.17444320363362248
-0.84147589464669681,-1.5891406282679366,-0.76621330652208663,-1.2531184578509345,1.8403222490813687,0.33765886169712211,-0.58119579835228496,1.5579808354673927,-0.85877967369013364,-0.58218172675399571,-0.085103573166604315,-0.57460471312728123,-0.68485312992751646,-0.93797480419958557,-0.36980979589112811,0.1441988175472137,-2.3882055273985263,0.19207032724372319,-0.49123116472084244,-1.8800407584472092,0.42183684755308709,-1.6932578468853061,-0.55773804353862799,-1.0614053492356532,-0.95775096448511676,0.84787170729741823,0.73017774176919858,0.63940000030715849,-0.078385700522526164,1.1361869373332187,0.30988854718081427,-0.93331077904779158,1.0341987340830503,0.5686954922988231,-1.6852162708900409,1.3953789034246564,-0.4741442852078136,-1.5311233892719907,-0.52117420278488358,-0.66935397098232952,-0.79486135662736046,0.18412554545876453,-1.2432396288059964,-0.10573493678200867,0.72775048594058245,2.1824517356763646,-0.17439972293545333,-0.23796076479593201,1.0244044989646501,-1.2049405850014812,-2.4162703707970197,1.9534442642196006,1.5091761319751427,-0.37129001025463843,-0.70488467304021463,1.5876800089187804,-0.32960503859791035,0.36430593277755269,0.64235237492636021,0.93899741664222636,-1.2627333287560309,0.026332340540689746,0.22324933383534384,1.4916044043749106,-0.73077716776027357,1.4270071490308165,-0.22977693730095883,0.78862176983867116,2.0997321606826262,2.3252150384837713,0.65245327190956803,0.56603039259931431,-0.16542404130732202,0.03926881907490401,0.32509298432526224,0.31556253076480417,0.91623746659922634,0.64513909334410235,0.38219582724223639,-1.1255267726906377,-0.35819088935905846,1.0645349629397538,0.14534879444779961,-0.65829918623642691,1.5059013437559186,-0.3016474595952538,0.83066087435404157,-0.34190093337563204,-0.34523863567769419,-0.24962292040279582,0.43627825384815616,0.43998971793287545,-0.24180955434371976,0.93886048668579214,-0.74685372419692819,0.65147008346928204,-0.84568145017338714,0.43697805675054929,1.2413950070189257,1.5495524904810178,-0.50632183949019005,1.7896454175008569,-0.14750232795981008,-0.05848990318639738,0.31642041901459722,-0.810341628290422,-0.95708722583703509,-0.2587685604877083,0.8890992183153914,-1.0219282089043726,1.433286327592074,1.7181217551238059,-1.1511042556291773,-0.88497116482623517,-0.63751518463600776,-1.4192798169232947,-0.035860408043665498,-1.1698856347402007,-0.57107225810379914,-1.5971747380319237,-0.18187102201509445,0.73175069845336582,-0.78358938219384966,0.89931081670340463,-0.69799364089756399,-0.7986633527369259,1.543826065109291,0.57397680430009368,-0.095581984908969464,0.12640468628619267,2.9107811286420882,0.872526558454635,-0.016654479613482757,1.5992246651134316,0.17793324357266932,0.52070944674791941,0.14463140764994695,-0.36990502002936998,0.81241117115870787,1.811664522767348,-0.76423475987406042,2.2714782680234875,-0.091721204333258866,-0.0063736647754730359,0.63094995167396561,0.16426938762326401,-0.64065466311161667,0.084355930325483525,-0.21301704283625686,0.32932650656727319,1.1796941216347296,0.36798358672641984,1.457828901532457,0.69055960029101815,0.87253678999123963,-1.1326227713349866,-0.49624662884558757,-1.5307812235839433,0.30263319808772382,-0.50673964260255377,-0.42279253431604175,-0.68679656725712412,-0.088437661166228698,1.151783275838218,0.97017511979316573,-0.18135780481546271,0.4978915746816841,0.17913153773566048,0.81109139073317083,0.23914820743390974,0.50787279364648052,-1.3009872137946976,0.8227308581298497,1.1385385127654692,-0.12008213715682783,0.59582154535095,-0.82705253519617716,1.1133648635960027,-0.55359939125788993,-0.38517647421156331,-0.16861721675365005,0.31346142806541566,1.1788663699356505,-0.44870350635606798,1.0462297603220074,-0.73395934740703017,-0.26632077252392805,0.6997513160005373,0.48780804080102241,-0.82246292983496017,-0.155165487493552,0.65623693255839322,0.11088555466800613,-0.16037625638148942,-1.4464693069884671,-0.70186980541228727,-1.9196803686026904,-1.8384584401207111,0.77009154645915889,-2.0023058045244433,-0.032694038866663201,-1.5210727970371087,0.62168516014592212,-0.59930711077976184,-0.72256578254328041,0.59299302707155566,0.77575185307798822,-1.4779681426417857,-0.15135671219907551,0.7958712010930431,-0.19515007786315619,1.9067691532599145,-1.5990101202019449,0.003883157050425213,0.66982384661711147,-0.19589851021128823,1.0969043658229913,-0.52268436658031348,0.13367473402381483,-1.5308627515755746,-0.49284791667198785,-0.82138827736602793,0.53531857414691264,-0.61612762119195985,0.96947140342496052,-0.47399647393225686,-1.4185221837040063,-1.3731693113028671,1.5129526179420811,0.40370597005150011,-0.48854088320498273,-0.46685626493206711,1.2763872062650559,-1.3093575901392278,0.61403780894408422,1.4582946426780969,0.62355125966384728,-1.9044911531233806,0.39354828795925373,-0.19967675487430292,-0.98342570015199549,-0.33581738554521123,-0.52308774541732983,-0.095503955594436696,-0.41431826217133227,-0.0033059380830782964,0.010621438123100957,0.36752245553593249,-1.0054463911218396,-0.68867149068873645,-1.1479545670547364,2.4987181701314798,1.7358163665451383,0.9284917458234736,-1.1534855845167764,-0.63418154923569525,0.97140392672146225,0.14484897589398504,0.40943927493547516,0.11833827135293622,0.63027100986600648,-0.93369648790234194,0.96621328905190718,-2.6562729706632155,0.44161649990919855,0.019131037108133981,0.062113631919394223,-0.67211824720107283,1.592722177536871,-0.23725104723537252,-0.2976271246453579,0.71565663523898049,-1.0618398513881706,1.0795282631293452,0.65753128803991656,-2.0471124693373035,0.094107058087193357,1.1162876921540994,-2.0559589476776119,-1.8815853413341168,0.71047975941583674,-1.1736224806317577,-0.039396235229208723,0.84912975978659455,-0.20096157982220772,-0.68504865492418421,0.19351843477764785,-1.3826371953248044,0.0070631094141767013,1.265327412105224,-1.3096049622796802,-0.68293550393105085,-1.2713714258128137,1.1833172442462028,1.4022051157666511,-0.10981202827564907,-3.1573686653503108,0.45938352921551057,-0.75330877303183319,0.6924908083560456,-0.084921008336810197,0.72472824165499894,0.77974942041214779,-0.84820792017979818,-0.1956662694227676,0.96862288606008651,-0.34515980024046572,0.066618203840337828,0.60789957737053979,1.3157450663398838,1.253422602737728,-1.0238779580341411,1.0373225052946389,0.32515463992468457,-1.3222285180959592,-0.59501309893279086,-0.15888207714292654,1.7617799321756813,-1.7170082244725975,0.32983520132911998,0.11261598036055129,-1.5081037283568299,1.5208686193294694,-0.27235631961884371,0.25961694516621286,-0.82236638990769395,-0.40088240333044328,0.49292910317723249,0.8501655932955281,1.5891790006101219,-0.53140606690762771,2.008004387743382,0.20895268193969449,-0.74094921351520593,-0.38531389034710806,-0.78869240546863084,2.5467714505030208,-0.12576155801458372,1.7935939813219244,-0.79332408125552956,-0.45042165367334025,1.5539960935253747,1.0514204677047436,0.45471833868973427,-1.3967887547461046,-1.5144756164741815,-0.95264067015305998,1.8501576671054418,1.1062772510684731,-0.052571246621599302,0.50195265819994994,-0.91647535327707708,0.59452899562287209,-1.6196388725176722,0.68660719583324092,-0.64396748860830633,0.076131106828588341,-0.25476054492595668,-0.39528239422204059,0.94475993345927378,0.94952376835780861,-1.2815102825119213,-0.21668258006167712,0.25099233702136736,0.056961121545871435,-0.6597719293308274,-2.8864861735346725,-1.3141226749760875,-1.5705917649063101,-1.2076933871274229,1.695937935827226,0.49492613625375026,0.19283075316836962,0.23130617148547303,0.9284533004869564,-0.15347672749162652,1.2381477759649049,-0.91429451756002289,0.76141055588694029,0.7835524801501893,-0.81783625449294439,0.80182448836661813,-0.51453743159159582,-0.036101842707688875,2.4953629676125604,0.27489995244110765,-0.25066446418815364,-1.5258322455173865,-0.42524787012444565,-0.12376824291083045,-0.019134515437549182,-0.26877256461535104,-0.46573469900869507,-2.0700593637660774,0.13594784346880359,2.0388284548587361,1.2865694992392376,-0.0051016528082113025,-0.86657265879815304,0.7921488767621514,-0.17082619498858126,-1.3094329468331403,0.33911356687287869,0.29122639103261644,0.87337689817226505,0.12941483349026903,0.44931688159650962,0.032353151208217926,-0.56102688721487715,-0.34816178251275276,-0.75210702401695828,0.91757767167426096,0.72546409919413457,-0.88590538076897529,1.5975950060095314,-1.5692310265102127,-0.35788538483285004,0.57589757954350917,2.8924652276448684,0.55315444941893332,-0.83697664074220968,-1.3906906843757958,0.61059234608266677,0.33347955846559801,1.9849780351139072,-0.48087559267401359,0.17139518031394665,-0.19690760443315705,-0.41558240379648353,-0.23303664531208645,1.2164520191838124,1.4358953684632394,-0.99817489583008112,0.36120673307315271,0.22821663813088283,0.89755178173346839,-0.34595271743998152,1.2714315586828204,1.6079822547460407,0.15638047061930249,-1.545649688458955,-0.41012134280602813,1.5951706030092536,1.7151577148258226,0.27304123837610922,2.3373091349032311,1.3515607357249382,3.1634593625396432,-0.32662897870018648,0.47172172893739212,0.49465184826637937,-0.042441963002130503,-2.0914481343140836,-0.56370951655765777,-0.85245022318449637,2.8916628750517481,0.017460788601219007,-1.0438838462197895,-0.94876603417529237,-0.78956247406641011,-0.72023662959961376,-1.4698792749030827,1.3003656440148297,0.2291153153149097,-0.071685611609166672,-0.54361552362954846,-1.3507953434931117,-1.4623160300504028,-1.6305529545096062,0.66575913802710596,-0.38517058881695793,-0.23920232194867933,1.1696125193943354,0.049272045700837104,-1.8362113780216975,-0.65600283269158721,1.546873612083181,-0.85475825880757172,0.12909563159627607,-1.508190249095515,-0.97464352858003989,0.5341865284779721,-1.8956309120290065,-0.414424994151884,1.5486301236455562,0.79467305076771888,0.3094667388245555,-0.63872868528732984,0.18138228834465198,0.20956335478112451,1.4791585897622821,0.088683016091234204,-0.64333824070651702,-0.63137601107455554,-0.38766069077336401,-0.11325765589772764,0.0008035113667984521,0.21727733803265731,0.83908227836552474,-0.77374167407808947
0.4319607645371204,-0.353934221474758,1.5816559500913387,0.90291298827332478,2.0109610765091719,-0.76387115861934884,0.46418708197260111,1.3671304934387596,0.029207707855734694,-1.0708449974486571,1.2735484329364615,2.0337559776286511,0.73246601167224956,0.40610250561164452,1.1802388021937995,-0.49001005387813362,-0.056922496008013836,0.37333383354420924,-2.1699616302737437,-0.23235749158180652,-0.57336649888233227,-0.65559127329424127,-0.49764144525257148,-0.74722316456222559,2.1250481556262155,0.20609630768949214,0.24075452478535989,-1.7501907984210165,-0.15137921366776491,1.2678578258383082,1.2320167413408065,1.4683873197162611,-0.25189916245461108,-1.1238543326337582,-0.6223348633800756,0.87956240286758336,0.55630654817048597,0.23441493803661181,-0.38059405286718728,0.35995668439503758,0.34026868231576968,-0.60268836099641376,-0.9808607408183192,0.11527448745381597,0.17535055346772677,-1.3040596560801325,-0.92772659178642203,-0.36452681248912316,1.1972367069896657,1.1401647056969111,2.1407998459223325,1.1624453551458507,0.57295019190639074,-0.48185413687390916,-1.5643759876380117,0.42251522416200016,-1.0689655670868452,0.22259926047508452,-1.7126232815123379,0.54009138627318209,0.33771688893766655,1.5235378713405654,-1.4771724055457323,-0.011855278683941345,-0.49261835944199123,0.11775440174480817,0.20665497737994656,0.31581861412761375,-2.0336676702800798,1.7684691854385097,0.84802158865230304,-0.10020797615344643,-0.85250389798697424,-2.8561393519437877,-1.3093690630178878,0.15843418620895078,-0.11476312603769312,0.13252134055056136,1.9679937027180019,1.3836127851509683,-0.25304050141806705,-0.4026919737412053,0.27161203152646096,-2.9440441274354172,1.0495248512299178,0.42445804947366045,0.053883591710186425,1.0770857022339213,0.27044909895611785,-0.56418777834347189,-0.71582300577906477,-0.19911234633819602,-1.9481190813021241,-0.10426383521676505,-2.6933040938594703,-1.4890253000866709,-0.9563304050128244,0.77267751936395768,0.46444728829438092,-0.67895228490622894,-0.68383194627798216,-0.12865529545814125,-0.24366739847974253,-1.4441468471491821,-1.2620720420766047,1.675476782259564,0.61036490767954754,-0.20863118308731621,-0.88484555962065015,0.17369274815014948,-0.66913824718686687,-1.042695251575523,1.3577891302491101,-0.30350005810031183,0.79160687371748095,1.0282863910348536,2.1132534414173585,0.25508873583948977,0.19643527817322182,0.59326201843953663,2.265344122358445,1.6631286882366396,-2.0180855399430753,-0.49209769311805157,-1.5968770683383242,1.605622094608502,0.98658391898456343,0.38534689285539009,0.39484652223587302,0.49675854419526966,0.30866364195998586,-1.3529781256089863,-0.9296371626201464,1.3223374253035898,-1.2528401148899981,1.3082491764645998,-0.36155906762070306,0.63757188343612015,-1.059339441333113,0.76508479307131205,0.50350977532992935,0.49870568015602545,0.58155241104889022,-0.051756267986935812,1.308748665516785,0.22873995663268862,-0.98497450853932056,0.73928456704952816,1.0880969626907899,-0.62897584562083342,-0.58674249816176971,1.4183913032900046,0.38147544638429315,0.39530309040660283,-0.038065617130630107,1.081789105167722,-2.05700279833508,-0.65868429410517415,0.014551283839499647,-0.69658031008588339,0.44853435082461346,0.18928136934781359,0.46145626466795014,0.12099250917833207,-0.56807719363283748,0.12143381122608123,0.10004772026008329,0.41816843150467575,-0.68874633431216503,0.61740786597939556,0.0908055768212679,0.92945375072646452,0.47068362136348996,0.4095951874069283,-0.0112904378744689,-1.843520065825027,-1.515999383068855,-0.47213490742302272,1.7692420612674467,2.4550163081216851,1.0848653054822732,-0.42517448992299828,0.63244471041248584,-1.2931753429876738,-1.2285402496791218,-0.90488597238327173,-1.4442056908359133,2.0914545376971563,0.3073255278166806,1.6885270091644047,0.75372223453726006,1.3129215893498754,-0.71916777532273102,-0.71944416297789071,0.76302794440326782,-0.099078714261283313,0.040294312162464693,0.33225155018223768,2.6232860556799795,0.81295514280000269,1.07383835727823,-2.5475276159827813,-0.057125593181975118,-0.096720809217356388,-1.4195294890422994,0.67520239357426759,-0.23507719831654666,0.22826446387791297,-0.47263593770056417,0.67993784492527987,-0.47114812928535627,-0.41255309135493407,0.92558190186937461,0.6444524604946098,-0.23852002710198336,-1.5783451252365153,2.0684289740451884,-0.59511931512888039,-0.31214892949277034,-0.94748733482743452,-0.89269794789630985,0.26966553323856751,-0.31412220298429167,-0.47658009354103992,-0.098998758317559291,0.33376847052344288,-2.0016297123361135,1.4275343695606839,-0.48940645822108275,0.2975971566321059,1.2489930184099933,-1.0611480845296892,1.2423315485141968,-1.4252071384279741,0.09423838639323269,-0.35887415500986097,-0.90054457775090113,-1.0080986007897279,0.81346037951045336,-0.13432581904877533,-0.96821038974652018,0.096017530318511984,2.0390163455303063,-1.1201533704929585,-1.6057969088146988,1.219518260910528,-1.4675118244453302,-2.1746296135994974,-0.93477641097848885,0.69160998578883104,-0.31916485631117725,0.96428629950796652,-0.56112192741372202,-0.49618536936160057,-0.4313826009307975,-0.57088849270177822,-1.3873254264205628,0.77641179081880729,-0.053967277050810496,-0.49266402525427971,-0.37788830844839488,-0.60356391749172433,0.5538150853261955,0.48128509293490435,0.16716354927927563,0.00055801522119027067,-1.4073280819267941,0.83105807375507768,0.62154219464561766,0.24193875260751208,0.51653592380754942,0.54832524651911396,1.0262613182398241,0.12274501603611752,1.4519526926431134,-1.7676511386272675,1.1143939890832044,0.95021300757775085,0.70678994130241457,0.37017377104382859,-0.86938086497425959,-0.19388186440039654,-0.95859566335393465,0.83920891592842206,-1.2899610180593872,0.73243066471176366,-0.60660437742277995,-0.6543937335668506,-1.1422833144512203,3.0842028185583623,0.5998913434238522,-0.20792963467085757,1.132967781396051,-2.3739976244430747,-0.16761759959507505,0.44792263169504137,-0.47377059633866997,-0.58656399670604087,-0.094683365376946313,-0.61295762888139071,-0.1613922043527074,-1.1176475337155571,0.41807476900253804,0.27500520964804481,-0.019681818592257337,0.88958854359838269,-0.85207035243838658,-0.24246672315682333,1.3025063029360902,0.43329749247254967,-0.35627440383942893,0.093652944295849389,-0.93088623832901884,1.2235649036038909,0.43036051291016991,-0.92384797580737632,-0.020746022215458806,-0.55395792017881074,-0.40985068612592612,0.65816656186749922,1.2678905641865537,-1.3516046718974828,2.1085448552433315,0.41187740857907029,0.60669531285297107,0.52167292142824218,0.443468723443462,1.1393675915918677,-0.72140082773830605,-1.0106808186914582,2.1377292547498441,0.1156839088265933,0.84471173644777608,0.36304373910711013,0.74864968957936273,3.2012843855798949,0.33932129940303196,-1.1079625311852659,1.0933471177000926,0.091019725257665371,0.30250210511098091,0.86501579286830377,0.27177673241451,0.18341793771946246,-0.20018837421444791,-1.7228750406821227,0.2475568670405574,1.0026561843239967,-0.53004632631639226,1.7879971525859215,0.69242762346746001,1.1120655643391253,-0.44032538275945138,1.8467182887388676,-0.64763143531634004,0.3273103557034473,1.2737529597267252,-0.77338292252425622,0.14571940482311976,-0.019541249979671417,-0.18279042893413586,-0.40188681416957533,-0.29359046621377588,-1.3344101865223039,-0.65512311496430364,-0.60076121976158137,-0.68577205484292558,-0.34216897915748684,-0.46771387426737698,-0.66308255964680962,0.033967258497167842,0.68632293989594273,-0.60000736985220082,0.69610335773213994,0.76850953266155964,-0.71285809490752605,0.54122500359107917,1.4457835428534285,1.2124292543129371,2.4114343283435344,0.081129379615364816,0.40825895639289977,-2.8536324037251886,0.88162665369598403,0.3312167985788102,0.29638533929694794,1.7800870990508615,0.32158191809301451,-1.3883997298061241,1.5795128170077231,-0.75286061308265018,0.40149929808156637,-0.31559024583058209,-0.8067482828720447,0.083545337617306037,-0.70401315397951181,0.55606610603779405,-0.49490905864957985,0.57153266047435869,-0.71881936807388258,0.32784183753909452,0.72942204227871454,-1.8905919437744079,1.6050103380640963,-0.58367987224185436,1.2203934789602429,0.506697255608347,0.0863178003658015,0.077906364920229537,0.92437156929406405,-0.85255972178586892,1.5622658669246505,0.28932323715527541,-0.55755068168671673,-1.782641469927899,-0.94123895532983481,-0.40245197380422926,1.7306991020360327,-0.77761837904615416,1.2652704584014474,0.76607095038290574,1.1127412779701071,0.84512786323386158,0.66058611268166567,0.35812406093596388,0.19532020713452133,0.39556100920071186,1.1803408513797709,-1.740397058432249,-0.88728336331436164,-1.4638862781366495,0.56221221287533285,-0.49069554599713539,0.18826450671272618,-1.4790905585137202,0.50957139914220129,-0.38754499548541488,0.81256712982920487,2.031595714753017,-2.3438852492222342,-0.35628164960319481,0.025916326719981245,0.028119608489437477,1.1746586977600262,-0.50605447020758598,1.0304598365926589,-0.33408311378222766,-0.15237109692850329,1.5580702194695013,1.2947189697037143,0.48860049047123777,-0.14678794647251495,-0.93844225717470697,-1.864289140622138,0.61038211955498956,-0.34371242475898628,-0.2971306718869699,-0.43148052216996235,0.89546314505606939,0.64555946118906604,2.4482846078890677,1.0325612056465696,1.284944863782062,0.9384198382067469,-1.1143754212069834,-0.27088046652913533,-1.1657319750453221,-0.65686360412543476,-1.3981489573458257,0.21984253803370643,1.2970396311220285,0.0062804182229525066,-0.78296878983102125,0.11930584941939215,-1.5081100462322008,-0.53723528253634156,0.064351404967095557,0.53743409998836222,1.5729663931869629,-0.85089975909806959,0.31457871601477977,-0.97230369562593288,-0.89321472321770012,0.5402043972734536,-2.2679092580050266,-2.632487187353012,0.13731566318757307,-0.58253333687423148,-0.76119856829764476,-1.1864985146667877,0.95580900028629701,-1.6425794829769997,0.69753902243753763,-0.13565850948737171,-0.75969394823433967,0.10543715774928103,0.42360911453753602,0.53385249658940492,0.46916085997453505,1.3635092483278872
