0.13696940012709177,0.043920778885062871,-0.5532882010017518,-1.9129229483283852,0.10786888560990969,-0.27942544558087712,-0.65679248596298678,0.41437446431790875,-0.047597948489207217,-0.30245046305484419,-0.15317898940026589,1.0026823309539707,0.44498580637339602,-0.52919247429113103,-1.8896660676590069,0.012094357296446132,-1.0840245315362707,0.34734137635787932,-0.23261465154541655,0.20077033245806117,-0.54683598098310771,-0.71060860120098801,0.5391432681584778,-0.22843554050650164,-1.0129612938177759,0.48454480937185729,-0.063912701632791252,0.91131306387886934,0.54675486283716113,0.76418899713526456,-0.37651253822660014,-0.18579881568428319,-1.6659580781636341,-0.24216970254819326,-2.1646156150669658,0.65676680396646792,-1.0856448622772463,-0.67958036862528548,1.3728243264240363,-0.65366413119416755,0.09314632165418249,-0.78793788086846728,2.2530576082981151,0.84168887197516717,-0.12839062568452278,1.3812612325876279,-2.0604731133600036,0.86827579176252667,-0.33937144377301481,-0.17427042685175717,0.64402833465058151,2.0655365175262013,0.57982624593716703,-1.9041009302661875,0.1290923322699378,0.89592837285753202,-1.0354419188046029,0.13817389712663392,0.82881360676337745,-0.59317245485592762,-1.8433324557792807,0.54721509767276921,-1.1969296088195087,-1.0591582890596496,-0.23376455585020453,-0.70433098682742024,-0.45265763037940693,-0.012259343185015968,-0.00328093079358612,-0.089732585729848546,-1.0822708956565856,-1.116652417754882,-1.1890316852251481,1.237416981493408,0.47393533087998502,-1.1231316453934987,1.2246415989797041,0.26549233307467901,0.029299883245464099,2.6499385586535618,-1.003372261618926,-1.8169492034188734,0.20077578266286694,0.023844475734298574,-1.8280494084999701,-1.1111089948176482,-1.2284151383949706,-0.66710315950300281,-0.61895378976860238,0.75279610628027538,0.80889792993719933,-1.2139630228044718,-1.6284093000698563,-0.97353495445893434,1.7152913757398842,-0.77876484839823268,0.55529602337621009,-0.68021056822865611,0.17238364961695524,-1.9093940143265777,0.74925708428415394,-0.34107521097744581,-0.045643407915949438,0.21741511412146289,-1.1412472753403293,0.53063654447095876,-1.3888588189153606,0.77800635904002258,-1.3977620307702503,-0.66631259677641064,-0.011198963634275614,0.95756748116168877,-0.15449094421102894,0.97755103320217251,-1.1049119627712671,-0.30064378674495118,0.28916664829229477,-0.19635125407687212,-0.66464591372950155,-0.3011537453040205,0.28707656790907898,0.61852200441103367,-2.0128831344086229,0.84646728640153468,-0.47284266353806415,-0.64806028947743977,-0.1084744894664955,-2.0166595312206463,0.14631768384050636,0.21826777433772429,0.63154605066704272,0.77697921536516934,0.080717110941754724,-1.3766771058839349,2.1587709052491495,-1.3220043768707836,1.2247103884310315,2.9454814420986533,-0.29464528177176419,-1.4316507670708465,-0.96901181784448831,-0.33650530544394969,-1.4025609580575984,1.8232766056814631,0.25805714936067242,-0.88174529428647319,-0.44693875272607425,1.1312745345382669,-0.040400039862039924,-0.13085027037443284,0.073892723614894615,-0.18525135346209634,1.9892259419489071,-0.60254150322911815,1.1601567945329054,0.10851232297230828,-0.092837766228710178,0.95353703740988283,0.3893990235318327,-1.0247096346739639,-0.1060393160881271,0.50281970537215115,-1.6992274144734818,-0.17446888638358612,-2.0876540753595996,-0.76509299373408624,-2.2117824962810384,-0.2590427458976543,-0.5906748641788685,1.1185603845074541,1.4308423759375739,-1.4441031965571678,-0.0078849685416451359,1.0018039584523561,0.36222045452347834,-0.19232980772696223,-0.27847162225136712,-0.077741022142899657,0.83764048898755161,-0.83971629481258692,-0.64188314491865062,-0.32226430726100458,0.43024661892356308,0.40273562795141105,1.594753884797113,-0.53862901379140926,0.75879622884555042,-0.24990020336681118,1.0590784643776956,0.058733413044060448,0.79859247296200286,-1.1143314277491077,-0.16793855102879826,-1.2097869116628708,0.18540035365272731,-1.3489217015492008,0.19487663502324401,-0.63246457353810914,0.050464845151611204,0.60779668309021129,-0.71829507259295133,0.75565369357242329,-1.22276557141949,0.59411141736534456,-1.6401237627985632,-1.2621586099561684,-2.1408753812630281,0.94300746021549353,-0.2199483477123772,-0.92486364269447863,0.26725105466577531,1.1719254740171681,0.56101129324620636,0.59512619602127892,0.074693211778120369,2.1148174162651068,-1.2060104361132187,0.15759980575545171,1.129902488708368,1.1982889334120037,-0.11881068276664085,0.40720314138341424,-0.044731159487544817,-1.1932610456342532,1.4734845240382441,1.3377940368178232,-0.58148397631669213,0.56109691589378952,1.2750035728200422,-0.34886654318873472,1.0481683258172481,1.3930942574215619,-2.1951062444842768,-2.2210308974962354,-0.82971536729259854,-0.039039958629347088,1.4222349817775932,-0.065493141240144701,-0.27386415586315788,-0.72740266450974556,0.99791017953304628,0.84812734340938167,-0.33176720301008028,-0.50242325514966624,-0.060076471394773387,-0.38401657011857487,1.0478349982637529,-1.5629432372647889,0.27759508516903519,1.0929639229738888,1.3413296098559848,0.41429547537528644,0.76347602375269696,0.61894334573684562,1.25724181703106,-0.78406047037542859,-1.6048731159106666,-0.98070095175191019,0.05794566730923912,0.84436316578907333,-1.8778004214152901,-0.0085848044739872103,0.57864119620920174,-0.92285051805801988,0.88214014858239809,0.25418080231386359,0.46127021197467988,-0.72201453182049835,1.006782357688669,-0.11002050553434486,-0.84118828421414571,1.7378815077188219,0.61290494189450995,1.5893449384027318,-0.34097812091552065,1.8254093230260375,0.018318613273484656,-0.46033193032446701,-0.70080177177016401,0.20871175569310346,-1.0934000283632666,0.63090423693849296,-0.088650720919251538,0.3591573516155156,-1.1491691467941068,2.4343433484441031,0.10705513969221775,0.38746504386450886,-0.014518613660829127,0.24840710785177808,1.2904293130611619,0.51440659584783377,-0.77700408679487309,-1.7251186082931276,0.66847447402751359,0.38324305587377988,-1.4553950798995698,0.37120503727929821,-0.6881930136073674,-1.4883241768677662,-0.41678005359363485,0.75410874876538125,-0.62619143949845579,1.0151579560880271,0.88716464270986195,-0.69862913263895343,-0.37792971532608738,-0.79411251843836927,0.6227184719878962,-0.38722319827526469,0.69694079320433855,0.60466127539457282,0.52317399110745044,-0.55688417153396308,-0.82015059561542991,0.22509590652999853,-0.2524266619658827,-0.13881996967634888,-0.54122296176952589,-0.4934492616961908,0.10726291581701561,0.87167127358722984,0.46604411968814352,0.28124105585129167,-0.19101425218139315,-1.8481757197283259,-1.9474079968342208,-0.27575160229639761,0.69698594664543601,-0.7461183475395573,1.6696941571377886,0.48363959422833325,-1.3696423634294399,0.44484785069041793,-0.67499592748879889,0.36891171886336149,-0.34767932059842305,0.58833058338387356,0.24838499310694107,-2.0845344504081966,1.6519827063355381,0.53630989589289646,0.045333631345015446,-0.73417035535127029,-2.8134639369067638,0.47904482222296302,-0.73638786166513237,-0.047470281743877844,-0.95704290936470282,0.070665796289959101,-0.37381998752743884,-1.1735324979808959,0.8212889760640516,-0.18504465714851775,-0.84000614771887328,-0.84884166660232618,-0.20010478305450738,-1.0264689233856583,-0.99081806554250107,0.58723395398393086,1.5910942065452458,0.48010570009119247,-1.5524011114925087,-0.68416133120713396,-0.45806082189029479,-0.4787570695453357,-0.47908166100995392,1.1145457001272236,-0.24211852853325549,0.89483350190773392,-1.3464388367208922,-0.54512729572903129,1.5197332512263897,-0.18019265359000092,0.74653977994387399,-0.47404684622747406,-1.3542511666429131,-0.31464412332743524,-1.0263473264720715,-0.10747306387290866,-1.4062344287462543,0.46853009693471626,0.94397985737466739,-1.1971430603529984,-0.24520669402760947,-0.70881503035929683,-0.41636233296542874,0.11925238393454635,-1.0823289966679026,-0.70457508702180038,1.1407191118144937,2.5276267795192182,-1.6592872976853799,-0.037972270407574386,-0.15897287067907162,0.088847371777988404,1.1837108850330393,0.14098846809079679,-0.99213471200950643,-2.0129456998057593,0.20508923725065492,-1.027761400383671,-0.95460396733496955,-0.94613974825244163,-0.29809235484823682,0.16412747495334515,1.6976304153267909,-2.8211889242863788,-0.57657064767658794,-1.3500529152541449,0.6146652655915904,1.1153140227452454,-0.60276672613732341,-0.56226515591326343,-0.03066161452129448,0.38493941219298922,-0.45938710380625547,0.2619813119063078,0.57864812836377266,-1.2863803812420729,0.68084292288431802,0.51692562382855267,-0.32390313018536299,0.11992565864545912,0.0013456006505834215,-0.55677482283976243,-1.4037375058843211,0.54025842427664106,0.32473801898554244,2.1718552909063726,0.53125912165654332,-0.055943278958748253,-1.1696800780724241,-0.64213483326852594,-0.8702272492683113,-0.5908588378248173,0.41908372486221984,-0.034214771824558607,0.047541172333984895,-0.83629479410365504,1.6077078405727445,0.34858007988265349,1.4488906125917564,-1.425136178360316,-0.61731463552909316,-0.014557153160921833,-0.84659521791819525,0.71798390913737464,-0.090946625806119091,0.56879241136078207,-0.64770446728788855,-0.17994197101475085,-0.37015838759188341,0.28064764180249013,0.10201455361328038,-0.91092153208173487,1.6778543004379611,-0.23242618291449452,0.93202347641621164,-0.18774975230373234,0.17895808963485538,-0.21379331622544837,1.1153535413992268,-1.6264416432670035,-1.8998677044850694,-0.99572392822172406,-1.00967569381334,1.200316860204568,0.71401777230317154,1.7482624069173152,0.32658809427841995,1.1546764737459894,-0.47427929122656687,-0.18299657355593579,-0.56135378478220099,-2.0197304225016879,0.39985153761527287,-1.385919697773135,0.12362626514129602,-0.14081562033210412,-0.17488728932893879,-0.34843084464606594,1.2391175824761551,-1.3736997871720122,0.48502694107373373,-1.0478145292575187,0.17513110411370267,-0.75695251966643695,0.7881349743559356,1.5384587263618292,0.10170860256660171,1.1799106988534658,-0.58377794802996164,-0.3806130917967111,-0.68997521178387378,0.62689593256548093,-0.92863711979238583,0.32985652959800082,0.61940265587507548,0.38776967858512051
0.38082907832511487,0.31152895438924255,-0.24689235884174579,0.61645094889892471,-1.0597068340400553,-0.92757560546035633,-1.0075061246136574,0.11293853490810842,1.1124814626932626,1.1287400191859163,-0.62220767647615272,-1.9130741277651766,-0.23783382902015918,0.073166600644617219,0.91438425178102356,-0.33397311339625824,1.5901053195606545,-0.15696815233182393,-0.61224140014140938,1.3900569208175024,1.6835553739716993,-1.3131192491069361,-1.0494130678984361,-0.65652287610733917,0.072960473323348471,-0.24692324061108972,-0.95628780676067149,-0.67106643215237227,2.5943635497669595,-1.3178994807792441,-1.5429801158182892,0.6504553018091056,-1.2093721746940067,-0.93920064392241265,-1.1286445752072942,0.20849758847380154,-1.0195099097504607,-0.83454857436553065,0.84800099573139032,0.1055154128248196,0.017020619665211734,0.57866447450546799,-1.4049393810053121,1.0704527743210901,-0.1581305556322764,-0.34654503919562657,-0.95140264622796478,0.96147308440216772,-0.23036257574512173,1.0069154074173643,-1.7383333620878343,0.93516839826755294,-0.51450849231816043,-0.99678626014749394,1.3114621702570144,-0.12333164251943105,-0.33945334004862088,0.84572898314638745,0.034989988844050829,0.67269334458716856,0.0022517532239777552,-0.40528573042864624,-1.1916534209788157,-0.76237644280756522,0.60849649223599045,-1.9586074093522634,0.057448195554166498,0.019652131963963926,0.79323614516800345,0.72772960719681701,-0.66905438474698131,0.57583416918374952,1.8746951375128924,-0.9846556503343572,-0.7856309118720799,2.0032954580799363,-0.72244567344919797,-1.2715149726016846,0.77011480003196475,-2.0583795892762771,0.037010828438855552,1.1355844089246747,1.5231963338650973,1.0670004631866463,-2.3492441596795377,-0.53185912118433221,1.1229307419174401,-2.4074949737391655,-0.22289415296400567,0.65038435063533184,-0.14157308935722643,-0.98085267059999937,-2.2670225577568006,-0.30956679020478345,-2.1357079333123918,-0.41804747962348882,0.20035961363876231,1.3338592364383575,-0.24486741750028343,0.85913716082997704,1.2013674427478973,-0.92933075184618652,-0.75504085109335062,0.46900785910708237,1.3148210899748374,-0.53559756045954243,0.6436392725240353,-0.44073042402536289,0.24084154657243986,0.52734632238877976,0.64627974008114997,-0.74756292765571175,-1.7237443999565616,-0.040375998502055664,-0.46229738825387529,-0.19435303105936799,0.63047174668411965,-1.3966813473291677,0.52934496478160364,0.3829351474880569,-1.2465687517809438,-0.25498813737169429,1.77429456471384,0.55365320910429483,-0.32210581777652203,-0.36831525283138045,-0.20887680257955341,-2.6383296193843062,0.53814708551929036,-1.1381549244530726,-0.081225206250412615,1.4548848254708453,-2.0714242428302643,-0.47959203205300421,-0.0018598842913734475,2.1971081303178939,0.084002458538845887,-2.1124792301184518,0.14477960274322935,0.46515373634430679,-0.38531348373863306,0.081805427856056601,-0.98415900935907952,-0.51933920927849253,-0.88552656017047604,0.88088968111904464,0.26419926580894332,1.7354480880587597,0.83789141761331587,0.40021878782107079,0.23406728348360575,-1.6084924245731129,0.31090516401739171,-0.076897598446199589,-0.60156313658430949,-0.8708784231045863,-1.4129585169481522,-0.46855718532287216,-0.25993272684589969,-0.19788196729194352,0.90059257780208302,-1.1632704581615387,0.65145755031553421,0.95047257940427166,-0.33325428195391976,0.0067283823436541743,-0.79677812739211495,0.38380416430355757,0.78323134113417558,-1.5606233453672149,1.5441128845275571,1.2418096732621648,-1.0243973567608577,0.10002299856448765,1.2068984379464816,0.35625198649805617,1.4908260425215425,0.51563983285228898,1.3984618308129417,-1.0681850362275505,0.91029997911724869,0.5623139113405744,1.2291314573937138,0.74041188241925526,-0.23882833604566586,0.55360981021945899,-0.93195006101360089,1.1717087874866214,-0.61466986415244373,-1.2093183225133568,-1.20301152865532,0.19658929477669537,0.51515496589030074,-1.1933084253811381,-3.1686725311548951,0.75707305286926818,-0.70587838249032231,0.40982179683384007,-1.6597341090388911,0.63077122190091783,-1.1850601961548342,-0.078521970822588605,1.2382759229745675,1.1963788832063948,-1.6792773935390515,-0.67399868567693189,0.051570906404778093,2.3628829135013127,-0.22694121165064718,0.50552146597749714,-1.2441570069111207,-0.25375230856230441,0.95931899850842306,-0.36377271268850425,0.66406906336526428,-0.30163684183186207,0.017823154575621784,1.5523315626781304,-1.1197957188186889,0.32415945598168489,-0.54400251181226089,0.42698898315886591,-0.19375353526359829,0.53437790805274121,-2.9753945834129234,-1.0904347312090086,-1.9985822089847509,-1.6859112797401044,0.1873424691213901,0.017415439526661601,0.74749940256176917,-1.2491470119156773,-1.1271494380280003,-1.4060399974815099,0.11509104784461034,0.73592403973240172,1.164805348893786,1.4686440355664201,0.92185438658258212,0.46101962755670006,-0.71003000836627794,0.53972378450135472,-0.67476524122460813,0.54251052356879614,0.22696981422323109,1.7509153588363044,-0.51424391513526357,2.6009352943793052,1.5882122083161212,0.5594323684588709,1.2647245485173864,1.2416086965941344,-0.8297369724359176,-0.2353902099636058,1.474695770429393,0.77962589964770079,-0.1937882689803328,-0.65442257792131409,-1.6397934285409932,0.35157717020005352,0.53639741630090376,-0.98180646961523366,0.32302755497566032,0.65074191479597676,1.7596576126131398,0.16159359310621593,0.28674188932441597,1.1384298488260063,0.11493572847466293,-0.11467960028208077,0.73558859500998053,0.76068181769817067,0.86467654872009148,0.78341748315223914,-0.20948721913770454,0.34793463544457992,-1.0282073752635654,0.98725443778353505,-1.6145294979734346,-0.30288261095421337,-0.98695270767667764,1.1900195284301487,-0.0030714900834314073,-1.1765176748920969,-1.9028093761077816,-0.72060662418540744,-0.38187957529297234,-1.7874353872739501,-0.3466116412416847,0.40911760932566982,-0.0057515139881898015,-2.0741774357058098,-1.7609722025221644,-0.82425219830592789,2.151778713430172,-2.2821268446020175,-0.50259583241487882,0.89640568602827753,1.1528623230878359,0.5035317567091423,0.25912430837134204,1.3141468579505944,-0.26424062467839665,0.26911866837169779,0.37632369397080528,-0.49830987112030278,0.26586677669200648,-1.0091941653383714,-0.070474572281847378,-2.2874409454480666,-0.9793413244917486,-0.42668465824058349,0.44078297714784243,0.50389319177940184,0.19467846669772054,0.75397261904708424,-2.183131971660957,-0.81287975907424903,0.86055528392864467,-0.3874374316442728,-0.44922674881194208,-0.60394199011986283,0.066843072494947225,-1.0845339359020458,0.028980457971442015,-0.96695657556433456,-0.69831327568417589,0.37983334184288781,0.026863585594870024,-1.4657994098631004,-0.19021205225510726,-0.03330492597890914,-2.0445394131243124,1.4453195405541213,0.35113877942164717,0.23860882129676805,-0.53017321945959794,-0.56958441692575845,-0.15780792603280391,1.3135057023838053,0.20031616448498821,-0.26456682275613735,-0.73038430626436923,-0.86176493740473481,-1.2621917232632371,-0.54712097988523478,-0.25862925148483357,0.68350105388834925,0.30751778943328845,-0.464364439638004,0.21132669891343764,-0.035699005599550013,0.23176976576407493,0.79702076377105835,-0.28049895729010199,-0.65371546624510957,1.5441610750216668,-0.44877498361352453,-0.13175028454466828,0.8792398142181701,-1.3977796126554329,-0.27220685743548029,2.1661425302660642,-2.2899722797504762,-1.3279907994161768,1.2075801164847386,-0.57125863712665448,0.53210651831596467,-0.69024707080889325,1.2465199707077492,-0.032477742162127794,-1.5294657866196919,-1.0688484684539139,-0.90305872544194565,1.0540673765676103,1.7782561463445135,0.069005313933844889,1.1167250568242824,-2.1468071369605677,1.9613307361133889,-0.38979671108568792,-0.079842718195977172,1.1485613877126695,-1.3697385559400117,0.77615142306753049,-0.47925223385856286,0.2828170752967275,-0.8132613905895012,0.098306919423731681,0.43149387925705274,-0.83628310346629864,0.7240284666303467,0.38568534698134505,0.18054620111121181,-1.1038177677134273,-0.053208115133479582,-0.18871007875606363,-0.53873967577617454,-0.12353910348099874,-0.68143828008372131,-0.62720870734254131,-0.060920464898990223,0.50015379516562242,-0.14700833080736506,1.1744330770383473,0.78253631035558657,0.6568383911538167,2.0277433832918548,0.18014527882511897,0.43732069759292436,1.4953033661527051,-0.04060802354152572,0.5379872492328317,0.56728282397861196,0.90386600654749683,0.76841123640316722,-1.3404752797883255,1.1407848255923214,-1.483910945603659,-0.22965186267491622,0.01083908139595092,1.5180040057376922,-0.19201896466737642,0.57192583061515589,-0.16320457687134912,0.067763358872412915,0.59956211572408002,0.28479837583817996,0.72466196172985931,0.9330229030380246,-1.6075962626395486,-0.7321191681178324,0.86572893941369478,-0.26014110021512865,0.31736962489588794,-0.5026416597545823,2.4644632524326173,1.4738574535619271,-0.223466036704873,-0.49245714867494561,-1.5517184928133245,0.72402178066484835,0.13258227008974866,-1.094283332766999,0.88775218745962836,-1.2355598620829185,-1.1801453424230461,0.52559300900993522,-0.286362456470661,-0.12147717025018706,0.062826241808272648,-2.5470476186898878,0.93297297065807139,0.3307163584927858,-0.964094824582303,-0.64587308649507247,0.90289543919431459,0.0094640641119215583,-0.10389113583651673,-0.54136852234069588,1.3849548094534649,-0.8874160508308292,1.4734573095054311,0.64654477716554193,-0.063209164385206948,0.12618752721284227,-0.98688695052281006,1.1157934818928323,-0.098772013409416284,0.9424588194838408,0.18757381306315546,-0.31252802660973861,0.88517075111651655,-0.75724487302829202,1.2990273642557821,0.9778685298624159,0.2605622272572844,-0.067496705676972843,0.84205392875041662,0.31060932201958158,-0.94648577490634411,0.78646763586613955,0.76430527345986454,-0.57182899614085936,-0.58661812492237875,-1.2028410140957395,-0.91460614058828738,-1.6325276106287883,-0.34712781776770152,-0.48573415823772048,-1.950845367247684,-2.3317269203592788,-1.4890922024796047,0.21755994339283716,-1.3058844790294895,1.3716679357242811,-0.43954091548279878,1.03453756611062,1.3754009505671003,-0.41715934929969156
1.7686673264510986,-1.1721932595749691,-0.044740185723550131,0.90736277906739859,0.81516088439413537,-0.41486780718612171,0.53345106297888911,0.53239012271641328,1.0260599232166216,-0.18017853693107519,-0.99091564374683294,0.28470064454138505,0.89572072527930979,-0.58157325151729289,-0.50210145863410005,0.24831924974091246,-2.6705877812659486,0.62035801914828093,-1.4393648784417232,-0.51970695171541592,0.63521541082145661,-0.62366986796516011,0.70824409084637929,-1.0305855858576554,-0.48571873702070262,0.19389457998930806,-1.6149771298871745,0.68107200306351978,0.69811543131020215,0.41079001204772742,-0.14295703455806477,0.32400873295582627,-1.192637504516721,-0.60546762563330969,0.49237895637396001,-0.15650334409775796,0.8739024358169688,0.21461559423581697,-1.671678589696046,-1.1292185127391627,1.1763772806290405,0.91272406124681604,-1.034856129843692,0.62252248981893632,-1.9838650573552634,0.90175857961815409,0.3427891108551076,1.6166593404210028,0.41744731467587226,0.67302756979646328,0.1360421667074268,-1.2627334993116135,0.94792710779384548,-0.74807155179906382,-0.16414376933276476,-1.6274996053613298,3.1844388114430511,0.58729987438062803,0.43800042349840929,-0.16464876531605818,-0.48267761302310669,-2.6158719034129732,0.29120063154773362,0.32212834031333248,-1.3308565253937721,-0.61627204872135777,-2.7597598156344745,-0.1966152566639344,2.0278487987186331,-0.92838856222381438,0.29714989881860465,0.8919596421386643,-0.33379559823936172,-0.0015438319809117859,-0.048078427222253528,-0.51815540838574747,0.31156201365738745,0.88890030859421254,0.15278601990629007,0.65446477912937051,0.77078140840779164,-0.29942597995425912,-1.3871526965203216,-0.080138509696609461,1.8425895831198997,0.94464513241511994,1.2179763848730969,-0.64628279840298553,-1.8371806581718226,-0.27712176627773394,-0.59121059507867801,1.977958201783609,-0.31415220129090593,0.3740242466858299,1.051321047881727,-0.95103203805946035,-2.1684092947883031,1.0895844702293191,1.2252905056913908,0.3601361136903789,-0.17415104466587147,0.12886748387288163,-1.2065212540248615,-0.6517715717303153,-0.31787227013538683,1.0065864735508241,-0.41986552558047385,-1.0493724768664647,0.53768496192173298,-0.73483110694822551,-0.074029978584699341,-0.99890405036915453,-0.060124774723840084,0.087135307097432182,-1.301985660094316,0.75987180806939525,0.98325202376464149,-0.030652370406590919,-1.5622986746446119,0.31900068614644139,0.50865020719980203,0.5587738930520707,-0.078835076143698335,-0.72683720879246771,-0.60395248331960338,-0.58488704354652998,-1.6882715354595308,0.37368778273206049,0.54397920039688608,0.50189983838361163,-0.88799979067044177,1.6990223666342557,1.4142339789468095,0.85874930512889569,-0.21010763786105938,0.36328327747161904,-0.017215409100277947,0.91056229311906289,-0.80389806476285508,-0.31616071775152199,1.3454529923885763,-0.22155954509249359,-0.68658888979866728,1.2532648422346016,0.80127106894639355,-0.21363525835661246,0.431642568930721,1.3915709326751768,-0.28937154011042204,-0.86219768778167505,1.0234089803711164,0.19385973637101042,-0.80168853533101747,1.2793709017025141,-1.5108877546715354,-0.94764986152918018,-0.43961160140239952,-0.19117650525912105,-1.395432032927983,0.33540173228481363,1.7477507923821942,-1.0164148308836252,-1.4968569905367031,1.3225457997260606,-0.45363119647045169,-0.075285302156892164,-0.37087270918443921,0.28553006835961187,-0.10189068440701915,-0.56034839671928227,-0.60889777448635429,0.64608980858348386,1.7700844097484163,-0.3093062244050776,0.4554263579703115,-2.5162010314723124,-0.3015219716969208,-0.96251974280851682,-1.4402879774499724,0.017847653813982258,-0.45275581079554167,-1.130509499312802,-0.39030381115102852,-0.028035387973644278,-0.032965464864809196,1.1462901859792232,-0.31635052035660782,-1.7589933518640195,-1.7116803561373963,-0.18540254210735665,0.10684554008990746,0.30494288127439417,1.5797932088609696,0.35370857272457346,1.6657351992125391,0.36998614118811501,1.0461131170108362,0.28939529138881553,1.1831925943430837,0.049495096612020832,1.1841461260307526,0.5150673491489085,1.084016553021629,0.30316647039498512,-0.5459834931581603,0.3139866332298149,0.4471702938373795,-0.46536511380470397,0.26003709460022034,0.31779003459193023,0.0744839677587677,-1.5370226328344463,-1.6500252737355012,1.6980766258910542,-0.12309060805103593,0.42307067439849882,-0.83031523049608258,-0.17752343291457945,1.3536671988619253,1.707481712758564,2.4565980476268172,0.78812712718105948,0.84430810182153648,-0.18549004591456711,1.6202974388433733,1.4984034932682029,0.78566935446827313,1.131471544944761,-0.60910876102130751,0.34559212204399486,-0.5580239301572304,2.0799798137363434,0.54192484718230716,-0.03503724065603131,0.69072716272173895,0.65826676142333185,-0.59347848733909425,0.46059886116066728,0.79193520477066981,1.3858735895957635,0.87572311163808803,1.1597344949942896,-0.40230053687970163,1.5866702435579718,-0.054853326490007903,-0.19456990611725938,-1.0451094995671883,-0.48481632311307704,-0.016622250607017598,2.2661458018662817,-0.062172974663869396,-0.62599598537286538,0.46078044620003417,1.1847186903929421,1.3726064195793564,-0.6711852300956862,-2.0268173407175349,2.084032998387209,1.130336561991969,-1.5763749307614829,1.074360985036199,0.82005654624590218,0.10266079333088447,1.1177913973091564,0.51372305324144718,1.8587688171526977,1.6030056443283853,0.19445313092120206,-1.0973140017467409,-1.6440920843996347,-1.3698675987459565,-0.28877981112909323,2.2973785975140881,-0.11167160775529064,0.6629808866888327,0.74587627535036949,-0.79739046782443945,0.071576048723461363,-0.90041510736948804,-0.31993845835549867,-0.560412567617387,-1.5933025292378884,1.1958013211147609,-0.74481450379314751,0.28154038328805053,1.4720519491755879,-1.6433935880409973,-1.0546314155057175,1.3440277905332223,1.2812740093237465,0.15403218719370487,1.9343145553453247,-1.4136967863216066,-2.7221640545329326,-0.35485390991221777,0.66147994112307729,1.5160798041510886,-0.01113537673514213,-0.034482319694045326,0.01077446134482144,-0.44521001279060751,0.86173812630172986,-0.04066685196517901,0.079171249220485643,0.12773563379154232,0.46959137147167729,0.39400033526161204,-0.44440641797624053,-0.37690794823903928,0.1916355455533803,-1.5042556755053123,-0.92819560051312744,-0.36318290686283111,-1.012778894758787,0.99972463899010811,-0.086791876562183151,-2.0362517764336379,0.38736559943895027,0.39147078037274785,2.7023617766233481,2.1544614986929296,-1.6194121139072313,-0.76306468800050486,-1.417804316849719,1.0689651839407899,0.37664371789660239,0.20473474230696717,-1.7963306191157047,0.54492341127868538,1.5748469734588093,0.621791454100456,2.1314618946649357,-1.9150352821934198,-1.1369384761177526,0.25451467544406681,-0.93518877642232501,1.483283588928034,0.53449498315724597,0.45336710517111994,0.85765267672911971,0.36767048395150465,2.6116407153749095,0.37870829238430759,-1.5598798209086591,0.25755473091083897,0.62857781882657937,0.98215372263024148,-1.1668009924983145,1.2864619290293198,0.86495269252738483,-0.47566097971445453,0.74632257338129704,1.0710953019573728,0.99323724481012143,0.52863050724911231,-0.90623622833990303,0.18981822985931435,2.266237916075915,3.7337619019886663,1.0127301254382681,0.6363700424994968,-0.34775218017959758,2.0026215581138413,-0.74998241765167073,2.2339504056027977,1.2969885450452074,1.6717853095175583,0.10250371506160325,0.052583150372757216,-1.4937404285461975,1.3587705894566815,-1.7922186606785191,-0.41496251615297114,-1.7430096351829456,0.70343078981931362,0.70932864912950477,-1.0600866874318606,-0.82358456479667796,-0.20905356297067385,1.3315982314426975,1.4324652614246152,-0.38299629204785957,-0.97753416909503799,0.049745750415426587,3.1288471662330033,1.2305519060052832,-0.59100601025146138,0.7485080017750847,-0.89407904854656761,-1.2168844534114998,-0.19944814912123818,-0.87567797533970315,1.2282025489484742,-2.6845398765901427,1.164884386896927,-1.3253877548456954,-1.3322143498840471,0.25712081819212035,0.6428713464578043,-1.8140662273056412,-0.79067963116067042,-2.0001140704439915,0.99614061352138283,1.4408238987753086,-0.46497958216926166,-0.21476908453939311,-0.30375692768167889,-0.1737011274940457,0.57053923335341383,1.1020871774218304,-0.34204824787378252,0.040302702487700605,1.0462724827597525,-0.5951810121255694,-1.2966030503397905,-1.8278259783963053,1.2257543397424706,-0.27692555884724251,-1.2514585377190097,1.7289183265691503,-1.2338472145295512,0.38783587920023738,-0.33421804994419863,-2.1357188268082221,-0.54668072422608716,-1.36230745542175,-0.75356010441331878,0.96638018801147529,0.2303749819755872,0.098112598007303417,1.1997950655879326,-0.86395746145569763,-0.66503657653828974,0.010549983766521769,0.98838881933228895,-0.31823629883195487,-0.33644592478713609,-0.18986657057431391,-0.90477402046243405,-1.0054333617678561,-1.5627179749359383,-0.4379475316109675,0.79282274329427427,-1.1705992145361379,-0.50245720229736501,-3.2100147534533008,-0.99604379947546218,0.38448285653278769,-0.096010984521229095,0.55575733353418155,-1.5589503557967426,-0.16186408911684502,-1.7607062882264393,-1.3253157654805556,-0.26580392468436553,1.4689691732058925,-0.64314963108588319,0.83168109831037507,0.17776248402663405,0.7206620349844447,0.76498276430168122,1.1868263919500661,0.12070929566201745,-0.021473647821812498,-1.0912226110285432,1.3238721034930738,0.1222568396033042,0.85318754791884488,-1.6018972689989375,0.73067208956681784,0.0925168565178561,1.6886439473939499,-1.3584532839385031,0.39660384953803063,-0.81646770068625174,0.86110062007349819,-0.21010990392990678,-0.66853396044096114,1.1730465577773626,-0.94711659982084562,-0.60429055440866042,-0.95016575036084239,0.18360361852551479,-0.91368217360602522,-0.11520377385903155,-0.68070489342211982,-0.25540736014159754,2.4497501672845288,0.86489488018520388,1.7039676290433776,1.2841911862591644,-1.2965351174421429,-0.74515736454932291,1.3518734902594325,-0.49783662926995575,0.3060247612770699,0.60328248217883607,-0.5648124533517479,-0.82462852333423509,2.8904509836736252
1.5650291086655124,-0.020631115565081654,-0.18739601874879988,1.1174188233347513,-1.9651122416030438,-1.5077312680484134,-1.0100113067703105,0.52972609603928444,-0.86302775840650803,-1.169582024324386,-1.533343788839326,0.5713498659186278,1.57078160366492,1.1310613599205064,0.13896728468006306,0.25398369653362185,-0.44763622909986628,0.1215470134877604,-0.40531660562892941,-0.10414765033564921,0.19989914302765294,0.501224317806371,0.61198506717045265,-0.16497043289205765,0.62482403966963862,0.080278359771972022,-1.4330792100800984,-0.28680697326581212,-0.36867849378315809,0.66184795659914464,1.1955259308012551,0.08830835653674847,-0.57362423857837308,1.0595331762824698,0.30003390881338216,0.94297212605739789,0.53920460129615166,-0.67214481693096328,-0.42794305923046472,0.097803389652940123,-0.24426164849018883,-0.75597147492666539,-0.28421665497383491,-0.048128373740643791,-0.70047973511099959,0.66956242044575953,1.1519352899692901,-0.54596126267588629,-1.1029635760621657,1.8173229429530322,1.1298162823926272,-0.62634627895573058,1.1527246638863375,-0.49997130367116094,-0.053096147524702313,0.67613226531908666,0.27799241820901111,-0.96882278945517786,0.47650076484668641,1.6906947488749919,0.0061710051379199162,0.074092152800520908,0.46830054179829483,-0.50073917732476936,1.4451650341402127,1.1585777048915991,0.16183382184747827,0.85706909837452827,-0.91132470580895786,1.6308514475362665,-0.81281050676722444,-0.71994876378474681,0.11742293064827058,1.0367792688606121,0.47560090859099136,0.089115415045674898,1.4679194045360922,0.73290013993071834,0.2206152925810102,1.2547650575981173,-2.1531146620170944,-0.075901434748515823,0.47293664317492723,2.1228826500554794,0.76146894748257921,0.38939276772109693,1.2476471966082303,-1.3739830670321198,-0.58908481261548296,-1.0198983823391121,1.5701960351662181,-0.48158197916827389,-1.2714241772534993,1.2619588996733608,0.33786800357965058,-0.79875688751695806,-1.0538338948964017,0.74639980708145626,-0.80009348921741974,-0.022636096741519236,-1.2051406159507954,-0.84465762070443029,1.3058334668852305,-1.6246151058582377,1.0830538608837448,-0.51793703606735475,0.48391711237548668,-0.049564061242312413,-1.0190159885595262,2.0516473468041792,1.4243400425011354,0.0095302488232571324,-0.66262947464165267,-1.0359916843116392,-0.078067857476907934,-1.1441453833788737,-0.020165318601958183,-0.81146539396040684,-0.36945719254976828,0.64287158866492744,0.24956139733191202,1.7865964257660585,2.8930185614164792,-0.12956984278766939,-2.6359796886730327,-0.1658986733385763,-0.51455727932682271,0.92249169921279051,-1.4066103327183332,2.2779683529604977,-1.4320674830348792,0.41612864941760414,-1.350977166630364,0.41869463372441762,-0.53152994448213586,-0.14903520753612054,2.2995885784463441,0.87779094390821344,0.52994271989253749,0.42330747728263063,0.16855374275011614,1.0581722162501985,-1.6651529505021934,-1.5648361019164165,0.39848225204837789,2.2134050685917042,0.014292203955142226,-0.21390218520971971,0.62084962863597837,0.70771172333739496,0.2131517304277315,-0.83870797247827467,0.57095386961417183,0.38793692445487615,0.71417961239766448,2.6361960936079472,0.28773117520721203,-1.4038598012991135,0.29077960030644062,-1.058722596043896,-0.44863973809679097,0.13138451333085163,0.019938905083168652,0.2347852891516973,0.14313452198649829,0.43388897162265838,-0.22138593179345911,-0.26321917189183164,-1.0020341697348416,1.5806049905304358,-0.1019601424991534,0.86574401983813565,-0.84666023688168002,-1.0574321142701488,0.81027191933085652,2.3203445607852231,0.57242172962497784,0.29543368160003697,-0.627442404307473,-0.20326375283572048,-0.29318816757538319,-0.30330184414720851,-1.1814298214536221,-0.0031125663763099574,-0.5855840092993827,-0.093405523699440066,0.14810861739701511,0.460785014899455,1.3960589234595033,0.95341724728939659,-0.37243313066614891,-0.94221719733570131,0.0078339665233849044,-1.3117065807588142,-1.0823601125263631,-0.74524171438261611,0.90053647615548815,-1.299425521768228,0.73216342182124383,1.0899138772674897,0.13707157182285606,2.2348258819134528,-0.71842361823105128,0.13326750453990688,0.21141100664480408,-1.9117714879804932,0.81337077933590718,-0.73500044617244842,-0.49943962582581236,0.58749578686736215,-0.030459427772695773,0.97148347944333169,1.1362482324402212,0.68609009404393784,2.0848183631158617,0.91745624048605434,0.68722981464440813,0.41613197260073037,0.58034855281057351,0.49488626860527957,-0.53174763183103824,-1.1492128264812507,-1.1545256492536373,0.53525425108934566,-0.24315176703941782,0.68487752339057295,-1.4774474810387856,1.0582459830994251,-0.31870646690296978,0.036455476894585087,1.0077040326646669,-1.9942565732120747,-0.12691976952567627,0.23379109872797041,0.79067715760782598,0.65094800066178327,-0.88177371690418538,0.49448309219260161,-0.50654653500633717,-0.87067681305976707,0.53458828779201639,0.90616318720783051,1.5409618430778089,0.62452809034207613,0.53067634494243998,2.0911473302574155,-0.84037240409288549,-0.69052501254577947,0.41053127489712621,0.4798601369056788,-0.8300591517985817,-0.17735076080912107,-0.60111116937796538,-2.3050468102677923,-1.9088350047673976,-0.21336995818987667,0.819943130384712,0.4201295498739695,1.1171509678937523,-0.089912229804412352,-1.6811837864162975,-2.0501633638816505,0.14185242689041555,-0.57522016738576287,0.15491826775650128,-1.5480044835634941,0.43079849373981249,-0.27490801536250181,-2.1755433066472381,1.337478761557384,0.97550833728531694,-0.69845076525836958,0.081759151397712643,-1.218877483378012,-1.1540108132791904,0.32972632949020109,-0.13036487567988581,-0.49793983220695742,-0.14197887897868658,0.33912152865799777,0.03329200642136327,-0.9561560778428122,-0.80785942497472418,-0.53124970983643671,-0.29931665815841696,-0.053173699161900831,0.55529330623655804,-0.49391258761224655,-0.27837164276089738,-0.46282668456309572,-0.52028139065265344,-0.41632669308990783,-0.032230676750799048,0.18831842480840338,0.98583769822732814,1.6183647871235214,1.5357978420763956,0.23327459880336232,0.54704643493258165,0.50334383343034272,0.71326018612958764,-1.3378244022344739,-0.048454301337764738,-0.72307967733571055,-0.18375179888198973,0.17482978054261386,0.034605133526851566,0.32493736440934701,-1.0582692513567502,0.71255937089026278,-0.36982149703918127,-0.42388096891556815,-0.54285389912954385,-1.956797266521531,-1.5719903831733184,-0.44519000586652152,-1.2118492998353083,-0.9721935704129836,-0.4654210105395688,-1.3012270169998885,-1.0686238787422391,-0.42785993122021371,0.86564915924007302,1.08529390937338,0.60446864584029558,0.23233046221389947,2.2471166834657574,-0.25214684978124324,0.34670198404553404,-1.3097993224421274,-2.3007835896320579,0.27222560121984551,-1.4070406863243392,0.087251989021108325,1.0677613609770829,-1.0331694617654517,1.914470947275809,-0.95095460800043297,0.2276509656182909,-0.12940729565884676,2.3974260400468363,0.0086838645340576535,-1.790418635422655,-0.071625334079828712,1.8680007751574093,1.1939764026277708,1.3289517722350157,0.45429252440236972,2.6533400740361066,-0.52806872993054832,0.98816948257421955,-0.9763073471829351,0.29021000938670438,-1.094195934878067,-0.39533471431928935,0.53325597937196356,-1.7344067535651768,1.4683388023539665,0.47955919481821696,-0.33909254978238534,-0.64477197117627683,0.65214579414687512,1.8450652654205002,-1.8703597265994274,-0.77930888821095556,0.65628212419158916,1.6195561277682033,1.3588697222292647,-0.8444313121118564,0.90368762807581871,-2.0291042219662607,0.36733545886792718,-0.26286665986481567,0.35838341592461914,-0.12632968760639202,-0.047358544799851791,-1.1105264425204071,1.4464862880983205,-0.62934142433034035,-0.08197619171294214,0.17377087953410159,0.91510906379498602,-0.42399664216256239,0.61965483937483212,1.8753803535421962,0.43492291220564971,-1.1853484805055645,0.2112475053907604,-0.81999549174554975,-0.06609765074477901,-1.0658825020814939,-0.54121599322388214,-0.03172741215573302,-0.68802754699093627,0.28085443593557091,0.15969650018400963,-1.732374426332169,-0.93519652968982647,0.55679076052499643,-0.040156169786153328,0.72409350387401228,-0.39719588465000649,1.788200697922423,-0.24096779642720711,-1.5942007346884364,-1.7008941287521122,0.85847817585500019,-0.15321436619881412,0.47414399829110743,0.49827655110802144,0.26303135948860251,-1.0933466997570687,-0.58384547333298931,-0.57439925954632409,-1.6066379432221267,0.34931191874792955,0.60126368827200904,2.7561295233503058,-1.214842535349264,3.0658684393200653,-0.80362166879376273,-0.36199119454961498,-0.69755399718986699,0.7889107086161411,-0.14243617603520484,-0.39681103969573867,0.63997699713425138,0.82368562702188985,3.4517883841727084,0.47766287294827869,0.12230292316958362,1.1808721068162691,0.93461467035446688,0.32267135553532866,-0.54172581663894259,0.43449153002181395,2.2309086178098032,-1.3689089663745126,-0.40625868663922304,0.12098020468471514,-1.3939027003880637,-0.35119398775742161,0.87742160251184309,0.36117127711402125,1.764064160785934,0.88703824076909532,-0.89250005912421271,-0.23292954133216409,-0.34215878509388076,0.87287823593795932,-2.3432922107552581,1.0445306837224622,-0.65136371194601306,0.81610094988273052,0.48734092263328854,1.3632571521822689,-1.0309177885968326,0.47214849535982928,-2.0619948420439802,-0.27814039662308104,0.86585949511907578,-1.2486766378440644,0.57919541373612216,0.47233244092469567,1.4645341566150365,-0.5826419805021813,1.3216826154531249,-1.3330499967938854,-0.22972113275763886,-1.2081938219381312,1.0341386982544698,0.75849289214882676,-0.63647458933268308,1.6297226696630105,1.4375631479744311,-0.13387435641804532,-0.40897767647563593,-0.46657289970492599,0.64595988896262502,-0.95650412027489151,0.81468523780940238,-1.2174632127816127,0.030526666578245328,-0.48769608430121247,0.19515014898312749,0.70836608305744986,0.26731924807673363,-1.7603369339028199,0.10963853296725996,0.23112627667506089,1.2174147474964581,-0.58541628436409776,-1.6796718873967249,0.1321215006906456,0.85857860126259256,-0.70406865138552721,-1.1127899397034187,0.58784631994414138,0.81638684725799104,0.15052908229082679
-0.19730482674911515,1.3935763659555493,1.9060742493372322,-0.81213533767340662,0.61368378794544021,0.34657555511925509,0.770164617000201,-0.0052068514663092908,0.63690251835330258,-1.8223579043550651,-0.30811605650037516,0.21138591177235894,0.31614869595380218,0.15983704494517276,2.0453416792776116,1.8284140269200218,-2.8338190082934416,-0.84797411242853304,2.2004253552262591,-0.20684621909276793,-1.6975069747695379,0.09568831589936963,0.25547881470272094,-1.3082101525898815,-0.12015449348822665,0.35969459277186483,-0.20527057558476564,1.2864575627804729,-1.1043361364881987,-1.509579471284797,0.16209751111002524,0.88001380913532901,-0.082252933249692323,0.86608219256229069,0.054157220423300206,-0.26103979655720355,-0.64686105665118832,2.4191774173090943,0.52666650379429214,-0.80145950994879334,-0.48811531766585542,-0.42434503037006227,-1.9081355195713485,-0.96319351563177136,0.43943265715806495,0.2917881750182168,0.019931664728613036,1.1938829439890521,-0.64874824824246202,1.0208186033833566,0.064814884219742436,-0.34235711270916447,-0.41231737805141883,-0.42930041835946042,-0.29293252666474767,0.36916611334083577,1.3527250942743649,-0.43587082188907256,-0.10483397312776918,-0.011066642673641592,0.54784128569629309,-0.46724591704130336,1.1778338883045751,1.0918615304648303,-0.71611721674074491,0.38028492406263364,-1.1667649088712779,-1.5266406854278967,0.32827911637523249,1.114730095976521,-0.50418912665604465,-0.15311427538740094,1.2966859405550171,0.26682188293830367,0.34550613964816468,-1.028233807131022,0.3343812363519249,-0.12889798840571187,-0.34124268416320186,-0.0023844964319628004,-1.8290658107996987,0.092852911581920744,-0.53246902786444217,-0.31577946783147437,-1.3558197157699678,0.26355492835450589,-0.53250973689545522,0.46095853990294189,-0.21417834558055163,-1.7455560709109381,0.67693134412617018,-0.31412634094898945,-1.3434101095818121,-0.53775156083541675,0.22228464246078869,-0.55386553791796322,0.96644918172760719,-1.123823455982186,-1.6189479160478535,-0.998732314034118,-0.28123070111487586,-2.2750331599820646,0.035540915381086287,0.19208687342834574,3.1134283788687989,-1.6531553267482404,1.4687718315459455,-0.4319211760934687,0.11893843608287553,0.6297056218425926,0.39555764029248269,-0.23663479765027975,-0.13951083833934333,0.06285289180243761,1.0589987104453782,0.24796922624607534,0.061436984550137401,-0.065155516281513559,-0.11895537210813685,1.2955978728270598,-1.0833140342636507,0.57831286585110475,-0.59225038702591493,0.25613603906570098,0.39143595217787175,-1.6534036677285664,0.09872784589934297,-0.43786726502047602,0.31558571917954747,-0.61462758963763109,-0.23310885006762963,0.24541305194562218,-0.94233639485891596,-0.60176807746792238,-0.057726937022933064,1.3538342717575447,1.2540495982195758,-1.2477668467458423,-0.69562664829518583,-1.0429975451217597,-0.30558046967726765,0.52045555149040512,1.7449791940691861,-1.4148564888137556,-0.85878160352078481,-0.07569219996930146,0.94301570924734979,0.28363603776528967,-1.0370187801596493,-0.83944659456157922,1.5854866694240317,1.0602964324821287,-1.2393652211414345,-0.69037569475256655,0.50539316243643884,0.45411898305284204,0.54364473229118482,0.085137148534246199,-0.28285682662035172,0.88417235392916438,1.6085270568780634,1.996878264495791,-0.1796050632760651,0.745391617848018,-1.617596091661218,0.43393687132090264,-1.7608023684870004,0.87302812369298066,1.4189792263119381,1.1765111924953684,1.5221909082057874,-0.85114542902952017,1.0822688439409061,1.5525767165554372,0.50869663923672193,-0.17188236000649204,-0.13962460119610925,-1.6204501618603753,-1.4331015134832881,-0.11856367304816362,1.0072109389026289,0.49752472529811953,0.46533088581174126,1.7512097206467088,-0.58309293334582002,-0.8429026626376741,-0.2013966705367724,-0.71982620209172876,-0.48458331704501312,0.25802660210113898,1.5799022739704902,1.2125573524889295,0.75286779953699534,0.67993466465565611,-0.051106376276466838,-1.9468180839169071,1.8841883164817594,-0.45291878714482903,1.0571870282255209,0.47688435396648682,-1.1346274398049796,0.79266289610093799,-1.4025937695691018,-0.76675748548051803,-0.56254383087519511,0.24163666669627892,0.77109404999942233,-1.0436467466044355,1.2597936644440886,-0.099816347940599986,-0.078534710681237727,1.6911480613893166,-0.24955012330223628,2.0114849242442552,1.1700330557964533,-1.3560860080772956,2.1387073259523994,0.42401700183080571,-0.17808991801517224,1.62734476531913,-0.50539166621102249,-0.45141196028338909,1.2853911085033125,-2.3332704917586407,-1.6176116938465743,0.48579762025195067,-0.7911353641381913,-0.084788580461851851,-0.013848143560539617,0.13073981427671511,0.11361874810987295,1.9150149515603931,-0.11145948455778877,0.83217579087633853,-0.47022556889885575,0.81967897609095375,0.34918356910137044,0.11857537837315414,0.51531639157544185,-0.47593913529400439,-0.17467451048776683,0.22896429987673927,-1.753371570855492,0.59440835528455116,0.10902961781043632,0.86734382732198256,1.3369868319160481,-0.36788859556137721,-0.24303252503295378,0.059017436982860182,1.868710915506089,-0.92771622569642476,-0.31956886745523766,1.8157513583267726,0.14135304644093546,0.075528893184600876,0.15176605292580192,0.74893864450788128,1.6638579758458705,0.052127089628090068,0.56690213857214755,0.03624635093708032,-0.40680682009404406,2.2922554949431508,0.28427569174671119,0.29817623382046476,1.5366931216528137,0.98711830543808132,-1.3562437613496674,-0.86601896282486235,1.2630363020573152,0.74084255706256497,0.17183103516208723,0.88022054758106738,1.1563144995230377,-0.57926725601562423,1.2646148810966564,-0.11733429795131561,-0.10507210095822958,-1.5299787542039467,0.67974506770532162,-1.239576932121103,0.50137401761004075,-0.050441819431828648,-0.28041051606967543,-1.1570831104512578,-1.0623464102387494,1.2375203392717,-0.36462842530402123,-1.354854453341731,-0.18917486645592904,1.6396850682436457,-0.51867499496669556,0.38525951690086407,-0.99542393498238457,2.1990115146792313,-0.37754458228123711,1.4506091645667341,-0.0080477291043507537,-0.43967848342060634,0.069155872961325054,0.99825012520836753,-0.54499412792566804,-0.64879381684970427,0.20593564806959735,0.24795576693114776,1.3165669009052139,1.1415112710651487,0.1488142091805752,1.1625421815806829,-0.83393640088362497,0.74401874711172622,-0.56401926039596395,-0.5956367209357184,-1.0153332123232721,-0.93226828109925253,0.4422423007303774,0.01000139020558315,1.4474532404617244,-0.63155838211009063,-0.53223609651363246,1.7694783357298494,0.82074658189212446,1.9581033439071693,-0.34208475319034498,-2.5739182748565228,0.38589309100610214,-1.5742715418855955,-0.7680299045103719,-0.69416849861072205,0.17677716997736403,0.73004591136440911,-1.1956796819874176,2.2835820192760434,-1.4175221219785847,-0.51661312312875296,-0.65685420217691159,-1.1420795782876183,0.79615076076766589,-0.63097467026945031,-1.39229541468273,-0.38825322539009161,1.3190204235899783,0.23481006396727094,-1.3283308444830857,-1.7606019006068239,0.9925562670457555,0.37488848257420271,2.7170636144978402,-2.2418111087395505,1.8758515847675701,0.56430285106781297,2.659824700960765,1.1033922872159341,1.5600142014756075,1.3604460512319914,-0.77500127704320287,-1.9386598412820439,0.07121242143899946,0.96303422991286058,0.27573051393610448,-0.30137387734633292,-0.85987064948857939,0.53975432124848743,-1.440515323804191,0.84939514262149207,-0.32101156492167737,2.196269318960367,-0.74965001922170227,-0.46864724452957235,1.5289497565969636,-1.8980362360435048,0.33890263850106617,-1.9906486260682696,0.042913980274487319,0.14229161267506046,0.82770441875379874,-0.9989574780880297,0.24194572634632053,-0.086081310756928486,0.49174326318572648,0.055879827059273954,-1.5837899946948202,0.68047635965635489,-0.82255129387422954,0.60803183674190486,0.56884618612834248,-0.091319228437281796,0.46677856652627403,0.49725843533470487,-0.10123973016002306,0.11041899364371174,-1.0458040080058151,-1.1028007296371687,1.5993449328010967,3.0344880812672699,0.65675032941217026,-0.3034079222094429,0.5138706652043874,-0.38860973296444251,0.43315325131143029,1.5216044153592407,-0.037486589836897857,-0.54519149085041874,-1.6991405536394257,-1.5464176581314892,0.99804002903771805,-1.3234369471728826,-0.98573647428808697,0.10976439990571359,0.061491624297747717,-2.3932410071467562,0.0075549378911725648,0.96280011320459846,-0.13937639710191829,-0.97305279438546033,0.001872458809190598,0.44258931668058149,0.092902059469417528,0.57380607593046973,0.31333720426600448,-0.80659637678086926,-0.33444363866738336,-0.57258917796734032,-0.67934488917599078,0.68990411030083587,-0.037581653674902772,0.41740786227856846,-0.064884626337088427,-0.32690902322184212,1.3528443959202354,-0.2138155734608477,-1.2732763594169976,-0.29364109820536766,-0.97113315708560621,-0.063355248681406559,0.47381294933327039,-1.4625302794646147,-1.4129494272996859,1.2312821935841052,1.6009109455213488,0.68840116782568572,0.65857893424109237,-1.9450109708064958,-0.84028842533193815,0.80507069945523546,1.7531209681385809,0.35261066710749039,0.016797725085726935,1.5283220272742586,1.4682769572387029,1.0612275501937667,-0.40648631231289223,-0.598007876655132,-0.80244904481376078,-0.88606325728942859,-0.86788574846417677,-1.1057981217330013,0.38248495675766242,-1.188153448414063,0.040772430502997122,0.66847830088130644,-0.60670387349846,2.4135815039229946,0.99136425990276811,1.7094417794435386,0.32561761842668835,-1.7578647489042625,-0.17769860040563898,-1.1743989736984248,0.73693907004242398,0.1826152911854716,2.2643425437227975,-0.28119143258087032,0.46393643335436929,-0.33873681756066604,-0.8553789614408005,2.0666164685832698,-0.44018684448070639,-0.39440826380198313,-1.3214760996461481,-1.2082298412560422,0.57856566244827734,0.39866990671138003,0.29770372704374715,-0.42831219381771179,1.0146294425343094,-1.6188383583795565,-1.6041861093596876,1.7631686132747117,0.38821154850699219,1.1432287975819759,0.35174893438168309,0.51938746624258292,1.0349651601339585,-0.081202146032512981,-1.9696242930360754,-0.8147751289195716,-1.2893259255267999,0.61897239408753835
0.44604781978219948,0.34713873104914234,0.45335760159777433,0.28665441526737051,1.4886082658139175,0.23300840434381942,-2.2525673251468512,0.25349229284334823,0.42254720635470422,-1.5272483231204614,-0.73553887866987033,1.6898071657939764,-1.1004720413748525,-1.6740960488393435,1.2136233176807147,-0.84905150492823478,0.71841744315425693,-0.37383506405609329,-0.41408751652986475,-0.11699478730638267,0.96302628034260473,-0.34783902078666251,0.37092205181173121,0.307211352063052,-2.3107239708514382,0.60780820245611089,-1.0304228722597182,0.2727668366856521,-0.099486961677907285,-0.54673654836190844,0.19293882986891261,0.24523603114185941,1.2796189093504802,-0.0002811358131245472,1.7435207799163619,-1.0974469389287602,0.38953436042736067,0.036067556330374742,0.56853951037337891,1.2085860850431047,-0.57573313848215002,1.084640418591037,0.99353741397509776,-0.54870184155725421,0.53308305449131665,0.15858423584233344,1.0183215200951508,0.70989546240346779,0.13132044015824332,-1.0367715290353325,0.50113977273192623,0.030358753815865547,-0.82355880944743409,2.3294894195382483,0.64448394326891223,-0.47524849154803417,0.19485271975934298,-1.8555057673608748,-1.2654295100064177,0.24736449838704544,2.3273501475766807,-0.28249672542722482,0.089509109839845655,0.81882530431197831,-1.228307323830087,-0.82327856784452313,-0.28331160496341012,1.9047268724993069,-0.16180726589373576,-0.64988814352044577,0.69068759159935911,-1.8972489178693861,-0.55502311673254168,-0.21267955729261009,0.89949803619737523,-0.081522817396832106,0.42323522191285251,1.3243719333851749,0.14787718456709562,1.6103053563763334,-0.10123388708369087,1.2614455352261451,-0.025516238250250654,0.50646168699141247,1.554897883353624,1.1363488104692159,0.52320881516782036,0.66896196384653983,-0.63425422087636518,0.12136023863542235,2.8694380104010375,0.61374326882609032,1.9700878990946564,-0.36171256805550211,-0.4398568160789687,-0.71067272864321396,0.35965862460429976,-0.38126952076239251,-1.2991068905342265,-1.0713611645946388,-1.0675118830820629,-1.2431280761952221,-1.8658294670469462,-0.94754070666137113,0.94444682637406863,-2.2784632286105655,1.9132811500450568,-1.1620629085443679,-0.58695477527973539,-0.42886853833835575,-0.72625000036119913,0.11551043502408088,0.8083864349945582,0.27228603666418955,-1.02646251199963,1.3585029982611747,0.41361577587211323,-0.41925624339430145,-0.26235064575728545,-1.9182586111357665,-1.4297444432321493,0.37136803250388017,-1.0433369986733809,-1.1323443133774229,0.75943970406643768,-0.57601949381658446,0.10451032297649429,0.1597315651381169,-1.1327451874884225,1.1364720472431207,1.0269837398843189,0.22419633260574684,1.7060560493829053,0.60519625955175649,-0.77039537103174038,0.30274645636171227,-1.5040392176855915,1.2801730525878514,0.097985661562815476,0.42040192703274054,0.27285453830505785,-2.6013777712431865,-1.1376669531280157,-2.2783910052304277,1.3363973017106932,-2.0161199731285722,1.6653366424562348,-2.0385795215897695,0.84687433374195198,1.1939947945276941,0.57860033377077591,0.64110786712463808,0.49950825844918173,1.1589342670394289,0.86567344644512501,0.66901773528421205,-0.36583772305260337,-0.076243077418002417,-0.15535447042439957,2.0164448860699893,1.2748164224454304,0.69733428302498968,-1.33416230048512,1.1728882715255893,-1.5273851064419952,-0.95601053680952319,0.7721039907198548,0.47489648898733394,-1.3614429756270374,0.83750770940677743,0.1025512431344115,0.83771693390902791,-0.10617747615763121,3.4813198094158824,1.4278986536845943,-0.48617433518732489,-0.088792083372369768,0.0041687173241437142,-0.11106628089584046,0.20838243474557194,0.40121773212291245,-0.30923309113128017,-1.041720908489286,-0.31964518498992178,-0.51093332531692914,-0.13169996672666739,-1.2008674803490622,-0.62393898532481018,-2.7898400884355041,0.49072802314780928,-1.0097175986959293,-0.17421332047307672,0.49322292293153275,-2.5534769058067153,-0.61282932750037722,-1.1190650222741187,-0.69759029706705611,1.3003379352443114,-1.1572981482921039,-1.1697734602359509,0.22672239563086077,-0.50573396323256703,-1.4658075976905944,0.082166973630438289,0.3357083397862855,0.34569786064095742,-0.11304650134121574,-0.96455561909700771,0.5813774055731753,0.16498534387163974,0.44274552158182223,-0.28553382256961379,-0.20920228418944919,0.092082585376782405,0.71262251332650217,0.011547146174037062,-2.4233739363885798,0.3122638004138506,1.5788367705165653,-0.078988984412257768,0.50132202266859938,0.3008635528996918,1.9779881385622184,-0.25810867049431424,-0.71097491991614592,1.8427196375277519,-0.11402315193037922,-0.91745541454301527,0.80089967217636626,0.2105536462597582,-0.16129735775455753,-1.7762883427890543,-0.96400804852596034,0.34454250867200392,-0.83196242527330089,0.93252442691791504,-0.4119362815586996,-0.29410794232808224,0.74899311481203945,-0.69270403342007303,-0.48085832835577963,0.49683220560295716,0.2187119250665682,1.1371666456384002,-0.80513577020137295,1.0294783144098338,0.55562655076815148,-0.55159990689704508,0.43309246255072642,-0.27511710132930112,-1.0140708960714773,0.31018169765202053,-1.2868315845345388,-1.3803807828239358,2.2791830090921397,1.3800193024944925,-0.75056814977281383,0.62323592125135341,-0.42641958198413615,0.56562780414328506,-1.8678123927702925,0.19305391518591275,0.31578787342943532,-0.17569134281235152,0.4820504109900608,1.4395343929193165,-0.28475286141659872,-0.50449786112083217,-0.44058938937798442,-1.5821929390262732,-0.7030998824776391,0.037129261159566773,-1.0167128001767969,-0.16241259087887655,-0.3484215461047257,-0.042331866195828294,-1.8494020872635786,0.081006197688859236,0.84590423370548895,0.28970257737160959,-1.2234533234066518,-0.63769369211987303,-0.4828968062668183,0.34694898380787531,0.19864851725586696,0.66592902815234223,-0.37421343841600885,0.90531292519904794,-1.5540092258185532,1.4969647573867133,-1.2922137745291784,2.0750789075138329,-0.66538327764457872,-0.7157395844692237,1.4427329930697628,-1.3914879468467962,0.99170543527595578,-0.68581113476396316,-0.73356329404437104,-1.3980475907216807,1.1460780742677781,-0.34956479304521121,1.4332295219239106,-0.026069350544734606,0.58246681550980517,0.93255108709038548,0.95914647201996672,-0.07744401437142534,-0.29146351257516534,-0.87613121037070785,-0.39392787200439605,0.026922271199337332,1.129078985973434,1.2502103885151676,1.5793270095274272,1.3436562654757962,-0.089217142106893438,-0.64468280655305699,-0.68265617774693554,0.0088088255295077616,0.20872966145633071,-0.34977264923890172,-0.66209914543883763,-1.8577471468710234,-0.52077282920577694,0.27910694682498871,-0.16311072757186118,-1.642016902782333,-0.19988995358234321,0.83883541977897669,-1.0629255569014335,-0.64291137736952053,0.54747520016641438,0.57042710052265044,0.69832776125118701,-0.48043030623711053,0.42947082114591273,-0.07514768577747219,0.17863945904883502,-0.26109745529936695,-1.4445877971976078,-0.28597402154496021,1.7741185481207855,0.94118858856904919,0.010351014399409742,0.2050204544515547,0.07864260114077834,1.5550003433044675,-2.0752407923668872,1.4856260933765799,-1.9070536353434822,0.16033831401738854,0.28462917695145468,-0.16175212552106283,0.20844052278576625,-1.1082078113544793,1.0209084937250368,0.5819457089157366,-1.9861156139918121,-0.80126821536275306,0.26003776985879468,0.61917131884548038,0.9710480259908757,-0.14930973339633877,0.94156630389859752,0.81127721480406034,-0.68971399209183215,-0.25312129671869321,-0.83082718074444895,0.18023429930923876,0.22916480510032972,1.0674778781581473,0.39103491651691596,-1.6825517168031985,-0.55927452206900263,-0.53546156653361288,0.20901319262370696,-1.7463791824244439,-0.10127310612095176,-0.17261308990075835,1.3424656669828401,-0.46277539447221222,0.97933200981831436,-2.0569505800797105,-2.238511810482708,0.84825244590949489,0.85495656844082335,0.83582692957759841,0.20997363507630754,-0.32388686510914083,0.79631000287517495,0.22215149143203086,-0.058201281288469409,-0.23299705776506469,0.25669147291177313,-0.20104662393677633,-0.28156440185409298,2.5716942146663055,-0.65053167029726322,-0.32185951245968197,0.68539101327906571,-0.46266407079601274,-0.51006536373234024,-0.38465105661586357,-0.028248596438551533,0.8522539928338968,0.45455764021180151,1.4036848864690472,-2.1288232704643026,0.19531577731587674,-1.3956799508228876,0.012968014618403375,0.22616594870182288,0.21455140357525035,0.59864639250943685,-1.3102047337218994,0.0967122198451114,0.53903711528895248,-0.39447569032218599,0.62638148785842329,-2.6228445134819496,1.4105036485537306,-0.35396764581744861,0.82746209622806044,-0.055073803153833076,-0.17613348477590851,-0.47200066622824671,1.1464901440332362,0.40709738131137169,0.21606528896833338,0.58791398343984569,0.1854103423625752,0.80886170880950925,-0.13342519342320971,-1.8243668370430803,-1.5717468018038117,0.67331374989103165,-0.21467094591851055,-0.84326203930092558,0.6836881379201325,-1.3870173057861466,1.5621427192873019,1.3408534432786412,1.7214860953110582,-0.59233260632632234,0.42588398876360406,-2.4077986303428829,0.11760640036595439,0.56461906435118869,1.0382284669350486,-0.070875373378661247,2.0580097688380903,1.3819433539451333,0.024790046595336086,2.1030911288365748,0.51101337056389373,-0.52546062213902445,-0.15143273526908568,-1.0535244960356001,0.34597400622680013,1.970874683786749,0.59482883554949362,-0.84424695830590213,0.73675271315099378,1.14064981694095,0.40633937336013554,0.71138154689920763,-0.011695397132558282,0.76638043865367778,-1.0564721234576238,0.50654800256243293,-1.7873901968899832,-1.1068105425221209,-0.057313445116120007,-0.43921308767006073,-1.2620565152338812,-1.0159686712465474,1.5275977215561929,-1.1013622429176819,1.1721869212269143,1.7397133479752098,-0.025207598839002879,1.2621503092225559,0.43186622178325051,-0.13489803036378625,1.4070702436658529,-1.3407469612013279,-0.50244300422906218,-0.55642091787752601,-1.2554432615441968,1.1229723332892803,0.078666706996332797,1.2618382192994808,0.13425217760296529,0.1781116661821591,-0.83448746820522934,1.3711988816437197,0.48817513021882114,-0.2507496765937805,0.63119757082496786
1.6307292257415673,-0.62226051853950781,0.14011737814723474,-0.96062604977559474,0.046429203700448528,-0.78400659633423286,0.016739714233263897,-0.91149769584487783,-1.4453070571256301,-0.65840610586736326,0.57909982144486094,-1.076142096660178,0.82772314356997512,-1.1174562626327635,-0.83828607393677712,-2.3197377227781466,0.13581796583669609,0.17590989580145122,0.31899266496228612,0.20202293072856986,-1.2547640984388264,-0.29790820215079095,1.23473091723703,0.21836460644306152,1.9156626625444382,-1.6244995288874162,-0.79333435244586348,0.35202146839579673,0.24826299198346122,1.6900280595001596,0.43089020412572593,0.19056857969016036,-0.017293316627325053,-0.071630550625884262,-1.0278637461359812,-0.87665034621179216,-0.67768784344317068,-0.089141331422096445,-0.70621915000382229,0.53385245335043363,2.553174279700527,0.31573941103138126,-1.0555066894568925,-0.098654401461310715,0.9040226240242798,-1.7028300002676096,-0.20109572261558534,-0.72539762568358501,-1.2389876824458699,-1.5534784085802404,0.21396401948816979,-0.71303746059585171,-0.40670892097662842,-0.2559480250462598,0.018703840724459676,1.3190450024001676,1.6497981922780827,0.019024503780016626,-0.39066106089347835,-1.478567267630525,-0.50831799636549202,0.52098826464000236,-1.7898499624519846,-1.1489640360643847,-0.68267529076980848,-1.8623014407699361,-2.293344595718358,-0.47595708185832414,-0.28113423024474332,2.4645096111352447,1.0889484099907853,-0.99273776367021715,-0.49303065503419341,0.23387789022511876,-1.0628129047248409,0.048117956678762064,-0.61673292934806934,-0.60532139316317635,0.5228337804904285,-1.0942810450685199,-0.94269130825074088,0.56754415843530337,0.78768450511628474,-0.5769810919801347,0.84022290441677616,0.38121017891000392,-0.13306136202217936,0.45632162428495765,0.76743867357088691,-0.64178903058560566,-1.251746114257519,-1.4049924299406646,0.55942725989871034,1.1033418422678805,1.7714535072109896,-2.0871010540584387,0.49919706397075869,0.94773799283222671,-0.5907681168431701,0.41474241918666527,0.42065177823449762,1.2924847914123836,1.0641919762180336,0.52238562449643666,-0.13018757349372526,-0.65356024446389727,-0.16052291184944836,0.53951526150610474,0.48426268336905259,0.65537340106605479,-1.0380599476212353,-0.95351740454676892,-1.5539402410385779,-0.93325238561405977,0.26052271747597666,-0.073053705947120809,0.097520733924632272,1.2303513325346163,-1.2012409840757403,-0.11160463266217481,0.14383190485934383,-1.7885129359811618,-0.56002608328147241,0.058834561964373651,0.39708880918645778,-1.4174665528626726,-0.16433527443417226,1.6997663378838426,0.90703522077480492,1.1600573617932421,-0.86781744747632084,0.79160325622937044,-0.96464525711095028,0.53772935383746778,0.83165732022078187,-0.96568893840706471,0.16962671392594594,-0.31549668593126623,0.68125165483339323,0.08021062417562351,-1.2649990779851441,0.66678413606662379,-1.9548338248543888,0.45573366940598359,-0.76017752240787384,-0.56745794589417586,0.59823385041516985,-1.4733317790345848,1.5343267177176045,0.44519239692406892,0.62020641898084083,0.031038440474637521,-0.23929512391893265,-1.9381027469311249,-1.8139108494142553,-0.45331762825821753,0.26930765748599705,-0.18598435086022672,0.2539387380039192,2.3253844214576338,-1.1887294172362677,-0.86886318890812353,2.3903097189996814,0.64708814961251815,-3.124832784598127,-0.47967635200484338,-0.30287884990720293,-0.078702776661288401,-1.9216760054253448,-1.2697243070640336,-0.27967051752252459,-0.50608857868443125,2.4378971278276786,-0.44859449573344468,0.7028935022081706,1.3771977745621071,0.17227958882070427,-1.5848677156153526,0.30357333484616439,-1.1055241939964024,-1.0485747467357203,1.1905189039107118,1.2019304184625081,0.40230597571380605,1.2763442355200687,0.056021086429782929,1.9314604287602017,0.66648155746416005,0.57132879780439405,-0.079683749182492838,-0.091350057652091143,1.4934681970693846,0.81216972099309415,-0.54064213648448045,-0.36401834300855229,0.48488608385853893,-1.1851229532241672,-0.51433948650083672,0.66377514587283026,1.2048994841846026,0.38702736428013945,-0.29139754036817117,-1.5410482656476945,0.9151512776771471,2.3987793603173295,-0.43794419112406829,-0.26473937442252787,0.16581756639544143,-0.64869886313582448,-0.54443334522222753,-0.28974469677617143,0.92763843807880242,0.59537945077791665,0.75599611712175785,-0.17070414040361345,-1.266275131805281,-1.0995236357634921,1.5180441579340322,-0.31307079144815886,-0.93383633641803421,-2.1822199910814088,0.36347451256280849,0.9849579017551563,-0.71650096451908796,-0.93135933513698888,-1.5277978655755684,1.470332763687112,0.34625909805547306,0.37663367625878591,-0.7737497806070075,1.5896340421254358,2.5289576240760905,0.088252947143817914,0.51283386180554369,-0.29444585067938162,-0.092047634479379914,-1.2075509213611371,-2.4749536211320269,1.5646377964929028,-0.93604182043214768,0.54563406179039886,0.50555906934153272,0.46329622506752016,-0.84760538825490594,0.3950483501867938,-1.9814847298218017,-0.14811386026993462,1.7388827333360253,-0.26306684300824795,-0.13773911154647667,1.1334231165183331,-0.30990976330503189,0.22908721668426787,-1.9089444357425875,0.079392768943345834,-0.59888762111038196,-0.32647351794225327,0.44542752102277083,1.9443100324566998,-0.14368789101997773,-1.0797216818640154,1.3373919219549066,0.47841713782647255,-0.0014135002957883149,-1.9934119034618945,0.6171481906744557,1.1218838505668312,-2.5449374208575182,-1.1159197539820929,1.0300727764187594,1.9015822952499577,-0.17536339352734676,0.23509885247782938,-0.047817977986277453,0.55133945636596116,-0.27399623414943247,-0.0063632223216110086,-0.33547998174983096,-0.68531425738885665,-1.4570565716826795,-0.89280138678455834,0.95463573401161117,-0.18312655105895176,-0.56365983750588067,-0.068642929638036185,0.20125593038673609,0.45461697432395831,0.68477966643141586,-1.549769967782892,0.22542697230942232,-0.54319952960300344,0.46676072726290641,0.418123127904939,-0.35456420974061514,0.74804554455907457,1.5074674668034698,-0.46654222179154287,1.0766820672918862,1.4951058318643657,2.5167024515117982,-1.3494660045073603,0.092388923656318761,-0.26206320262107996,-0.48426090967304158,0.36668681238450784,0.91348586809345189,-0.436540044354499,0.35512027191312528,1.182656296328261,1.0532341695878715,-0.51825162352179577,-0.67682535369271979,0.89680609702386438,0.84612079586960132,0.26641136431294665,0.47352246950334742,0.8421958069666019,-0.95952475439040352,-0.10365628727792946,-0.16552513241495798,-0.63906546229079308,0.56626347581043013,0.44297603615620595,0.96762028442350667,-1.5873526990421856,-0.59864990321915068,0.38101923532809184,-0.97946364650617368,1.996626186462281,1.3230020978715824,0.15235109274533523,0.7860736508762971,0.12870204591150342,-0.56085834437949711,-1.2971853023210846,0.78866270773147018,-0.34339011724720059,0.25537727633598045,-1.1596169790513451,1.3209176281350505,-1.20670265869482,0.061257689770099343,0.1786951857456113,0.79902654672313045,0.9367231395768747,0.15868826358964219,0.96532176417612126,-0.93717585087474231,1.3563977454615335,1.8850783826709197,0.48795943586654478,0.95808540563670941,-0.68487592850728252,0.18013496795283734,-1.8085634209353985,0.9346854832824204,-2.2102092155487782,-0.50586243425200461,0.43225781089539156,0.16268861970151494,0.063987776194639537,1.3424810609338411,-0.85170273898695759,1.96028759020037,-2.0144137873876331,-0.071952357758919019,0.98647008874503483,0.87323295140077706,0.69662490310889258,-0.56348154599339084,-0.48766886798322029,0.52388116219780245,2.3930842969511503,-1.9548020076144093,-0.78076170378444931,-0.097423802242699212,-1.0407356545639184,1.7198285251998624,0.16767025456867057,-0.83016155112671897,0.13716979564517182,-1.6597290143661192,0.39973580190938052,-2.053231162997724,0.40230499692091648,1.1637033677914201,0.31842169639600615,-1.1636441712778363,-0.090822368084878161,-0.031269200432792917,-0.98978474885249879,-0.83833380247988554,-0.10926819397864383,-1.9501263529937021,-0.33811141713911358,0.2071962720006004,1.087361880264526,-1.2742244584306279,0.87532564712044592,0.080161402956134678,0.15678795506333768,-1.3380372720080767,-0.33003111448853822,0.5406094571914043,-0.055342106351203915,-0.23440114430125156,-1.0240756021186541,1.7072221651812394,-0.83803308651257891,0.91687482412829002,1.3800684833731072,-0.63820233862715869,2.245351165442492,2.2353249052058008,1.9242994867220331,-1.4671679976762162,1.404293025721294,-0.9917450810970424,-1.0522892027863493,-0.83611277355509128,0.95214409912808839,-0.40594892291914375,0.015256501983710874,-0.072512957700846786,0.34622420981610152,0.12782119746772244,0.30160460482396589,-0.93826782516999296,2.0006296936748811,0.21381901704462888,-1.8567349325699714,-0.66443439685796479,1.394840356150334,-0.15615499165741642,1.2105505726295491,-1.3836509456406971,-0.6987007906359437,-1.201058511915658,-0.18431191148554643,0.33794497129382267,-0.11916126954290093,1.123476909559163,-0.17937295132161082,-0.58532836162098822,-0.32795351386631294,-0.62023188593799594,-0.42039788271425932,1.3004873485441801,-0.17592249704519419,-0.11621893613547414,0.33223799392431008,0.19047581424642618,-0.17887222331863856,-0.90522430318219138,-0.18036556236380494,-0.16413661090853546,2.0317541872654581,-0.69554832995626337,0.25199243619834671,0.25578814955476259,0.77268844221259469,2.2131130202642479,-0.74718436215041473,-0.66688289499827147,-1.2750295689544118,-0.25406233141292528,0.1259274639194197,-0.097623938494294085,-0.16418526705322295,1.2637323223829662,-0.23729230497183199,-0.0087255486615372708,-0.55233571231500245,1.7251413762314693,-0.052078819736288549,-0.83542699702793455,-1.7964309168846355,0.38806409776900175,-0.30915936357365281,0.0766339692118891,-1.3997714535162322,2.6456883545488106,1.1496873495517967,-0.99052646844778336,0.38764195363511444,-0.20448914714258293,-0.62996861540866478,0.52567746807159177,-0.68139451925414873,0.6082171484720722,-0.81204012326255026,0.71882841084858984,-0.37612326623841824,1.1632816726037942,0.80373404964786876,2.0577224766090625,1.6771063939175919,-0.89055323930108743,-1.0606009286090725,0.8042593419102152
-0.070669812702274654,-1.3487478117619967,-0.80031717171857042,-0.089329732899894057,-1.4637271844089628,0.65517238272324585,1.8799923985787927,1.8759971618059803,-0.24822754882490297,0.96433952440438653,0.71136712131972546,-0.13851826761896149,-0.29691400024624198,-0.30219807632275647,0.53296836739586129,-0.1567004596236844,-0.34700379937898973,-1.3607397901832581,0.38486678608992209,-0.96254072273794544,-0.10715604192187844,-2.6692584442388552,-0.06909077514662644,0.28969756662023316,-0.95826103429433918,0.058445809046808503,-0.093356569993302566,-4.4916583739596314,-0.32738394950349914,1.0022337115576723,-1.311865688952911,1.8508720717265299,0.92289103887333235,-0.14016133982845233,1.2169117124182895,-0.83951744486167323,-2.4061460191978212,0.069392856540849104,-0.92659871308342134,1.4493308430419105,-0.72451440658871591,0.78947959152158487,-0.94094325177065263,0.89347746690273988,0.061047043837749539,0.031700829034233165,0.36123204776959739,-1.7394222505274093,0.85529375604482694,-0.95544213606463269,-0.023842617539160671,0.41841041753585773,0.11097123497572677,-0.48087471764892609,1.4403633405391185,-0.80426926620844319,-2.3461010410851455,0.0092513677432911022,0.76484664526591772,0.17170893683731442,1.8872741087338731,-0.2220977103775458,0.45519972746136961,-0.23958208674471929,-0.54081857492138175,-1.1194344295463274,1.8916942139751753,0.37283947752250995,-1.1941087807093196,0.18729481983045204,-0.07083503897240806,-1.0436433769380844,-0.15383852431565373,0.21121704032315633,0.020548975351022201,0.10779003735078396,0.28525936868444562,-0.38604925974658472,0.84384997651794014,-0.89902197942518758,0.19951249677143487,1.6813308789814541,-0.19590392429020059,0.012492120394486201,1.142652160048321,-1.4718529019311473,1.0082795473220709,-0.55794532188718982,-1.1521242481370213,-0.92591937895544385,0.2039913939535859,-0.094186705610080787,1.1917741538157147,0.61491698371692849,-0.40742482481580095,-0.28216618816683386,-1.0361401274677662,-0.67215368008309118,0.31393755120163869,-1.9012644420073466,-0.62682991978343716,-0.78087783729031368,-2.1984994730158069,1.5933324008359684,0.74282021131200437,-0.75883249713436507,0.87168738486562425,1.275038093440422,-2.0705768955063966,-0.31385737460884428,-1.2757413386829428,0.81667187375631511,1.0706380724172662,-0.51625561186839508,-0.35410991612589882,-0.890260890743231,-0.10447897113762898,-1.8809536698961322,0.82045850851815616,-0.68808799693422551,0.60369554935570835,2.6425200375707019,-2.0450134204119683,-1.0523440671153363,0.42491607217170824,-0.41796374067573022,0.59844551141728208,-0.80277176408875306,-0.87020195418613067,0.62919013018550463,0.92304380589727653,-1.2979653385906327,-0.50122177347103081,-0.53960397815277872,-1.291651509274329,1.4518415160311031,1.0979297871057612,-0.31441722493010177,0.1127390762144504,-0.16654770655514659,-0.59304098950036122,-0.43101746763031012,0.86267164779429195,0.73726691019179691,-1.0810747840448012,-0.6637193690942077,1.1822218368986954,0.83532441669703039,-0.84405073911836714,-0.79054446215811713,0.34700147664902775,0.60327480721242877,-0.3124863933334931,0.64482819997075158,0.47238339634798931,-1.6627005242145261,-2.6183677443890176,0.49445686280633061,0.24548372353428477,0.24491276221570546,1.1796302498921596,-1.1846117044953413,-2.1267007027556351,1.622630162705414,-0.19888518172570716,0.48231154043404384,0.32672728170929394,-1.6250533721496105,-1.5131555850672682,0.87687248567919629,-1.4007780230756217,-1.2471009862198095,1.5894730921221425,1.0550199589586946,-0.43856344906768474,-0.23268340394349799,-0.73753000739358432,1.0487001060114594,-0.044439143302153948,0.81093322556060854,0.89430225360167581,0.61372917279786754,-1.3929413248607547,-1.830562542837411,1.7236134303715291,0.82690682664008042,-0.39164645276092708,-0.14255710078470571,-1.4873862958344113,-0.11568849599196204,0.18907820696565683,-1.6081478731456611,0.28029088942806346,0.76090536338377668,0.075731930595015998,-0.14969185199926749,0.35744481899609321,0.28571374768654534,2.2541919325083075,-0.43057644137397721,-0.20115709820034611,0.23809413668626239,1.1788435955374623,1.0711656967544656,-0.90724478391810393,-0.50726185026726744,1.3316043483793722,0.23329786277966222,-0.40124657613773262,-1.6743491567672775,-0.88895866719878347,0.58002415360946957,-0.41223241241147535,0.65210492839235334,-0.4313663330833909,-1.9156968146083015,0.35498634999784184,-2.3150384875324268,-1.0394638628160644,0.22814890605341775,0.96922297821233727,-1.2652777274278999,0.46134969068082138,-0.19107188695873656,-1.4179305062069889,2.4711162377418803,-2.0366254613494399,-0.92189605110497552,0.29483456044088274,-3.2509032225061087,-0.23341001837453154,-1.1857728475757239,-0.81587943767835969,0.61069155561236443,-0.62982909859278347,-1.5318921685692541,-0.91623516826771911,0.5338538223309679,-0.29797668641673036,-0.069927392051888818,0.47905518368512529,0.93697329459773449,-0.010235594426645636,0.36366249928162264,-1.0436206104985213,0.99822114941107531,2.4288172062854758,-1.0652621324409921,1.6819264852352602,0.41544221694589994,0.81820023692225652,1.613359196356638,-1.1365048642120552,0.64446842091685741,-0.39506137506615741,-0.80045411891974794,-1.2663131334584137,-1.5995445792987837,-0.58032730423718426,-1.1670859206005408,-0.48508622811991559,1.1475835694497678,1.1577292741501801,0.52733922993691296,1.7379989478167355,0.47367655571977735,1.5828973338938841,0.55615466917022216,-0.61021619946776906,1.4052812365634504,-0.49102428688947319,-0.17520168724311783,0.78681773848252456,-0.83038860185935159,-0.28143251694675264,0.096023725070539023,0.96146687892625626,1.0202821299008358,2.2064893686697213,-2.0639064225580301,1.0264607981034057,-1.5350959911876985,-0.45942811003983086,1.514266651239119,-1.6349209577715753,-0.91076965654196174,-0.068596185159545742,-0.81120355861512694,1.0268813422030107,0.43145610318133826,-0.58049730852413739,-1.4689992802756298,-0.34222970625410626,0.2101487053774411,0.83430227017916336,2.0031868892172202,-0.31116176445661092,1.5207333417740687,-1.5718724932842529,-0.74274631188312457,-0.5603471645981225,-0.43028778466951456,0.17234418457626063,-0.65503605091862649,-1.4274008484823242,0.085197048854286236,1.0155521458775005,1.4661086879514995,-0.59271549908314836,-0.76526036565427547,0.76975813829295703,-0.23546238768826974,-1.865450058417419,-0.75113724976752572,0.043066266772600489,-0.58166455941940876,0.13258341335808099,0.59385969117504056,-0.5257105981245741,-1.3127601191103544,-1.4715066093204698,0.37409455670518937,0.29686115169385124,-0.090092357127819225,0.061560094480542331,-0.89059049534472223,-0.51113205703944364,-1.7299780772788944,-2.2408130239658313,0.82188297207356076,-1.7692414907599625,0.75317875393754719,0.75716824410423134,-0.08889545481115968,0.31591085478184533,-0.035541978757745854,0.9394587833468645,-0.21663148136063229,0.2850675768520915,-1.0310959726588218,-0.67123923862686596,-2.1444876956935928,1.4499409732395441,-0.11300987648881025,-0.60230963247298264,0.013982453463133399,-0.090757571214003602,-1.4373701019954852,-1.944463871879345,0.80340569974778286,-0.31337796374133081,0.5946565704625556,0.60833020226135326,0.73067698333040498,1.1977203735899404,-0.89314598625210773,0.87526134654850274,-1.6074958164772557,1.157643348948312,0.56878138202588502,0.27841215463548613,-0.28774191542803701,0.40355527168415262,-0.20209393653398194,0.97730918241141473,-0.020014072724698156,0.42201256080988692,-0.20418734032890282,-1.5175929922958602,0.83158344414757757,1.3390689848057142,0.05384070434729487,0.38055126201697048,-0.88471765217711729,1.0015175932456699,0.89858802580961505,-3.2818655346561023,0.2810889575682966,1.0811787291792547,0.9925168573914166,-0.086521944154348954,0.46646654479382565,-0.16449418227077156,-1.170623960622627,-0.48933035335831765,0.76769825532536162,-1.1487393508634531,-0.95493452385896682,-1.0955907855870548,1.1669905478025711,-1.2292152599766486,-0.13854954549136012,1.5548961479651515,1.574490549574314,-0.21049323415994903,1.0165816993137236,0.76007763259839056,0.48724555843974782,-0.87396469795308573,-0.78622832811236576,0.16842850155522907,-1.8615424274293424,1.1006519842481417,-1.4724047125380484,-0.97066391689060594,0.46636710776496759,0.23084282375235179,1.5588864486231362,1.1027663313149545,-1.6152457913400715,0.45501271601300186,-1.1403470409746488,-0.024027107999899544,1.3111321260286219,1.3512086887787893,-0.86274176483260112,1.4270422221471584,-0.47866374587024818,0.40957637688477544,-1.3417292678379615,0.067455090015709207,-1.0841431254171325,-0.3124571003321886,-0.29467408360096287,0.58945443387403695,2.1312278045963189,1.379404020695906,0.53244581338159092,0.79292786277732497,-0.34829948770556574,0.93284776929307467,1.8760967297998012,0.79381408130270881,1.9809354771900438,-0.71910563487855761,0.056449541294657235,-0.16649037377430623,-0.48995744363805799,-0.973759630694915,1.2163610135929661,0.37286661863081172,-0.52602216477893649,1.3018792113351867,1.1008888233675476,-0.17725647459994937,1.3399310531939614,0.075410395544501838,-0.50894457088806422,-0.05374946520898561,-0.61254858323243444,0.74576384318221989,0.18090740412413775,-0.40654691210058835,-1.024063697918342,-2.7143417160370871,-0.93950976650329832,-0.2316215588570496,-1.2455379774950106,0.11502771229893775,0.093825706630272912,1.4203152156086003,-0.061733575746702254,-0.090871037405288374,-1.0460503709085511,0.62427878399792114,1.355957835746407,2.5609550231520588,1.1683134396367585,-0.47938797948311801,2.7396928020129971,1.3702552593514494,-0.72949367679841626,1.4115828265751627,0.49897557735086895,-2.2638238093854581,1.706469373461573,1.744902032084662,-0.8402106643050069,-0.047942809670889562,-0.25603575098535408,0.26154930992487563,-1.4604391601361333,-2.6152158602086732,-0.35369967912448874,-0.18256240850094252,1.3326536781237628,0.57683087108067754,1.2713550626352179,1.2822143123942888,0.41296975726307017,0.80954273067212101,-1.1506487120892659,0.16663149279177294,-0.5000799884318704,0.23949292575072048,0.55900282078927577,-1.3455810483470267,1.592023718877603,0.54101920534336401,0.71562122243359194
0.33528745763829138,-0.81239276662208526,0.25601583050576204,1.4778013347783376,0.53677687905010685,-0.52410769377632682,2.6671289061940717,-0.16490383939416633,1.2313240367216429,0.80423837646247565,0.54569775159567002,-1.2782935910969853,-0.55642990271949433,0.0028560525170635946,0.063437173462889823,2.4532075463925676,-1.4373690493735209,-1.4710469839686036,0.44860448546887938,0.66040569071152078,0.28062750083601257,-0.23251650922588593,1.4484246943420025,0.70258185762306535,0.85297679451096031,2.6698909316284354,-1.5637898541006732,-2.0955937955287318,0.54925995176149334,-0.14861277653658822,0.34807938984221237,0.34294245375814131,0.28649231676026665,-0.1227709642329505,1.7903226749705363,-2.042022341781538,-1.0766978057770322,-0.68953966361734909,-0.26271390950481732,0.15134203669547275,1.2183953134585026,0.72098534888670285,0.0072268456936962914,0.078650962549225892,0.93098478868973478,-0.32569461694541574,0.050747078585843521,-0.53950473341663541,1.3078732310426155,-0.97530566521519158,-1.6739674441746928,1.5920805441334647,-1.39476346627101,-1.1400916224220927,-1.4390786392694612,2.5712230305340631,-0.99102421154010367,-0.27486007525569867,-0.35139984537041813,0.67976851299972085,1.6800132830822927,0.036751278435120167,0.80639139721500419,0.17822736873083919,-0.1476901682015487,-0.32168616514134346,0.74557333234833756,0.574311597518397,1.0287850141899906,-0.11616144468641124,0.25666051008558849,-1.0449508947141741,-0.89556029789994474,1.3356245044922666,0.91784329177782897,-1.3298395825225482,0.40602112481086894,-0.3037643682919689,0.95339754452510583,-1.3984586388286411,0.98006757789442678,0.80026759034243355,0.29789123040595922,1.2877409237588775,0.2876464269385221,1.7839043258673277,2.7575188278025125,-0.34840470558609871,-1.7294683783457891,-0.48530266164980318,-0.4221481091334377,1.0904773767821867,-1.0507852109171552,0.31080875077784242,-0.0047779481142124249,0.90352464673132915,2.1535321152450351,-0.15086057941531394,-0.033455747338759022,-0.96617571101346456,0.08809424336519571,0.57586223061226172,-0.60409001739349655,-0.86255905975209368,0.76516154263708203,-1.2952385824950308,-1.812190617416362,-0.026312942032944191,-0.99374901300839613,1.5403663428374292,1.1669891306950924,1.969835814766326,-0.71033215915723291,0.43991389048948654,0.12126348238367794,0.25571705691123681,-0.45420203708156909,-0.029404291659398299,0.02427822915165416,-2.3408610838250863,0.5743693014579786,-0.61120356355834216,0.3977616904732908,1.285195910878784,-1.5741309780359327,-0.71205430028582117,-1.9625228522218456,-0.42687517727425778,1.475194844439407,-1.3259919705740328,-0.58670234272769817,-1.3536716523990944,-0.28989666851347834,0.20408895047485487,-0.93887858196472351,-0.32062857284022678,-0.95921030638161453,1.5935691900944888,1.0078653639871149,0.04714241941989987,-1.1360581548063606,-1.0584782247665256,-0.90877376132338139,-2.4222741133722012,0.31714112180878395,-0.1469255903060544,-1.4305385131576176,-0.70065723063962937,0.51058528180535068,-0.43380473967350308,1.2859747568064148,0.58465699247948189,-0.35989327887871364,-0.34902190333497007,0.41362928062131826,2.2422603870123679,0.29033274630322592,0.80018817881883963,-1.6497121008129205,-0.56935387633069612,-0.14860126440422741,0.11750581308368276,0.48892637604931943,-0.37712227809012749,0.088439639152528032,0.30692666671121044,-0.22919341015900246,1.2928013335462465,0.07767954983872917,0.86640919663919647,0.22262046311252076,0.68373807517039287,1.3795169860616903,1.322943877666473,-1.2015118067771153,0.650529736623356,2.1071832564347628,-0.59777595205174583,0.62376370353322574,-0.91937390650507711,0.25405167814364193,0.62972750110350262,-0.51978968752710408,0.60073536266959637,-0.89499955887543048,0.0090198071060769072,-1.3188076954817163,0.18839372645567612,-0.66510186038843744,-0.096874939817656366,0.63254308843474194,-1.2493834943111695,-0.29744813898458811,-0.92527827292068709,-0.27583466971044329,2.2801077310167943,0.21537241921894845,0.15911749075401557,-0.27899292381134955,-0.41756235903734318,-0.78780525657149214,0.32895434998085388,-1.9561988465317821,-0.27562987472433964,0.58993468194001975,-0.15901221925597331,0.38712664749053333,1.4487653129013851,-0.28222567643699287,-0.44820265884987248,-0.135840132657153,0.66770176055935637,0.3106304570113394,0.94046759967388793,0.10911122314395204,-0.54672474576944885,-0.8375357759814086,-0.637824649354509,-0.90579886155855371,0.53605612641237566,-0.94636666601464803,0.0010402239016622701,0.72287708233052572,-0.10106417806515347,0.92923729252786003,1.0417580564986486,0.52848939468075495,-1.1103694117130947,-0.98830885058183005,-0.18271625729001983,0.70581503014819214,0.93715549712568758,-1.7199371808931272,0.61570680159833135,-1.7183659522464614,0.27647562343477838,-0.57031329734007996,1.1309698816850002,1.104907853791532,-0.50560169786148557,0.56290839335555198,0.25067471947774833,-1.3887690752826984,0.3979429669075607,-0.046371289710431508,0.57913614120266932,1.2230194521146045,-1.500794811728803,-1.4436063987225103,1.4895368912695823,1.8426129980564439,-1.0921863454906127,-0.64351227580785975,-0.96529932137897401,1.6040961171382628,-0.69220879752147169,2.1309889276012659,0.92998731396712431,-0.24253286725174658,0.0096149134811945106,0.10301838316343584,0.061965397311559547,0.4647223040123693,2.1350966952454562,0.60319835009126965,-0.12523823422364239,-0.55288919189129571,-1.7202145990680413,-0.88642668003191061,0.038316793881163512,-1.6093647832488991,-1.4352654339471378,0.90126340284814255,-0.029279055054639302,-1.3501695474541835,0.88575946924529247,1.8135062624206328,0.69102089255788934,-0.30953197883073741,0.049751638823552963,-0.64528760972624222,0.33454802715616827,-0.079441969517530936,1.1907247868491262,-0.31611620927570977,1.009085433125201,-0.6161197739642168,-0.9709547383781173,-0.73318249068656671,1.4730600169784662,-0.52556548589788221,-0.36414074598244289,0.7088376979125588,-0.061309200157059061,0.34064231616807311,-1.1029567784792345,0.7652823951108032,-1.0727017832115386,1.7279998988532974,-1.4230050465279791,0.5549032490947291,0.2195815990016714,-1.6598991323005499,-0.12687945489613456,-0.27919819538744456,0.60888947051530629,-0.71795066324265833,0.00026255771753866278,-1.0500436815018739,-0.46493091674661285,-0.66414396390347097,0.27332308690418405,0.069103862581765707,0.1035154157826025,1.3313019210770913,0.76479727056453761,0.7036042599666833,-0.26631574433101002,-0.77216570506181237,-0.96130548787038606,-1.5362328322078715,1.3546483041021413,-1.2916888373240125,-0.29691801569835924,-1.0524155567616642,1.4776720584385563,0.1548182601046974,-0.76025126236602192,0.30646079822804911,1.7854830263720101,0.71331687860065796,-0.58567240747483162,-0.13747337188276537,-0.54708322010230226,0.73795685276059619,0.058847804442272958,0.27482020683439889,1.1847629462486429,1.3692433044379382,1.3912600480528183,0.094729567899409658,-0.87269419925022151,-1.1222947257964686,-0.13182426331871319,1.1152046890180907,-0.43497579728907776,-0.25661149272829525,1.3803272918758487,0.012766707837949738,0.22717822821026937,-0.3928382536066693,-0.025829908554163165,2.8877795051862676,0.3682717168513896,-0.52331853977830622,0.76812131948449802,-2.3136894935316525,0.073321642540707263,0.41116200904313033,1.5337477017387513,-0.92607000755656466,0.55700001411727362,1.378414722709649,0.89991185157151055,-1.4839359798895169,-0.36120688896402575,-1.3081124070361208,0.27394035678167267,0.46792367631291221,0.004858793299636407,-0.43381621929960884,-1.7454329913600148,-1.0979779645123526,-1.0836263032743541,-0.52555517797732698,0.52356811901982825,-3.5182275951734607,1.1479801984218836,0.75582579231257485,1.0906921351916949,-2.0189397211402254,-0.59384341196584955,-0.10472842705693719,0.35745371759786354,0.26666873821425119,1.8305269721487885,0.067011936439232256,0.12974108059990352,-0.25306594249166825,0.73671126404525644,0.83413348965634848,0.92604522946667078,0.88498646362106825,-0.075289883576694999,0.41045399266351645,-0.2484240035082188,-0.55463674303659327,0.30562216012074256,-1.9792326888678935,-0.11271215087240818,-0.26735168583403368,-0.012934260698807831,1.6081285869692326,0.52704758023323006,1.3856257912688246,0.28327154140006583,-1.3399095682624664,-0.080336288281064414,0.99958453320417073,-2.4801912186405617,2.1070299668228869,-0.91699570225639815,-0.034915090710588743,-0.15877836945080287,0.58313164811586815,-2.6503987811685636,0.38365543295290222,-1.501347876501294,0.48352272186742873,-0.75546586284628059,-0.089485415456700551,0.98908165721630248,0.99907767387860558,0.27120758831016945,0.53030296165562452,0.76271194654555119,-1.199497405908001,-0.99104482285429674,0.19823237669465724,0.92458423417175795,-1.7562768347468345,2.8142504734659695,1.8502353901648281,0.47849230538706145,0.60049758786655838,-1.2453187181522281,0.52783339067371982,-0.086367194185359,-1.6093781348695722,1.5361880891367423,0.94294567496556847,0.46698792145083617,-1.489477636857085,-0.87009798594132082,-0.4787205852483894,-1.7452543344755824,-0.32073603899426317,0.28380177595248429,0.78171413086191577,1.0087879756766209,1.8270895559562901,0.67882183342903502,-1.4803002287044067,-1.2378538668993482,0.17423355493649137,0.32612068590894516,0.72233318330578,0.43855739251610959,1.1279962741596965,-0.19825320540213015,0.11292475768163206,1.0947506307063766,-0.56731068096963477,-0.85713728627010655,1.5669514072072372,-0.81747322460663085,-0.20450743607821498,-1.7500303200775291,-1.3354229954456409,0.6057964693339124,-0.96733194541260492,0.32465715961607383,-0.54362689079902815,1.6453795629647905,-0.71749742405984984,-1.5121196507412031,-1.6412271538302632,-0.58429743360304265,-0.30861242400643046,1.1218015353645583,0.80478714016885855,-0.59600371179744205,0.22453733306652576,-0.6951652064684829,-2.0785586361791113,-1.5926642139193457,-2.6818027289206618,-0.23103151905784663,0.8802467927043911,0.33267445969454651,-0.95010725328967727,-2.4501018024171066,1.8883429962983949,0.15379100119027025,-0.067649542299364859,-1.1344290087043096,0.2594523135763222,1.2226937616051967,1.2161612776662694,0.96282158268855322
-2.0236381974159245,-0.66157790182021181,-0.062860484723958179,0.4355183509789623,-0.5439558817476613,0.73891565176208518,0.90719051053204736,-0.090382557542174571,-0.33387240789617012,0.87285402322111194,0.35584343123204298,-1.0451477230656645,0.11936629479785246,0.21868563984487754,1.6783338744049856,-1.290400948694217,-1.6709972111571538,-0.30180346381867895,-0.35466576338927913,-1.1862896982299815,-0.097639737945167226,-0.86732895504256446,1.2210145820046199,0.91797559224555259,-0.63458467551988662,-0.083857161456701704,-0.76861100151394879,0.1904613638949145,-1.1544454655622673,0.71819317426723872,0.47719077059372911,-0.071192120273740445,-0.91562291445797095,-0.64134398124127479,-0.031441159925747642,-0.67290897736573607,-0.36811398319714672,0.61604368737175397,-0.69272996128945363,0.30764972573036348,-0.63755620236299149,-0.20350816877338149,0.14693920176092118,-0.47666401820779142,1.5663037514595446,-0.69987701830644355,-0.060493779092889305,1.8861388839330859,2.1582895510208302,-0.83805777644995105,-0.9747326001636154,0.054865098782386025,0.039498744818692907,0.43317282580340916,-0.57316762622245032,-1.1455499865109877,-2.4894509429571845,1.1353627718783292,0.73314013702624825,0.6133856843283424,1.9182723410952611,-2.2122654906599863,-0.73574986809309373,1.0876577068214763,-0.92792199338531522,-0.97962372132318332,1.068275464482022,1.9676000167521746,-0.8007241104860372,-0.98594776732785772,1.0086561124406628,-1.9509326373056595,0.6778013779146207,0.83000736772040362,-0.040820611030091866,-0.66583645483519827,0.19001462087645812,1.2156137828377509,0.75968076600898138,1.0311297022140586,-0.0095384734764459508,-0.52455404619112334,1.526531010810972,2.0833058525417907,-0.12133702901128374,-0.37268392398893502,-0.77956042784513324,1.7197038550303965,-0.89221519148799799,-0.65610713723933867,0.10659030167393203,-1.2691376660109706,2.0469070755558114,-0.72150269838813341,-0.54946848292683748,-1.0126905745126791,-0.56069202990379419,-0.35561176696569169,0.34177089605147232,1.1315924707542719,1.3390395411417011,0.59041092344908974,-1.4699342812463003,0.98071371443653266,-1.0997956151585242,-0.77422898626690317,-1.6557844173524174,0.09416988601642759,0.022271260581427248,0.91740495470111805,-1.0095767154520703,0.14909284288078437,-2.3736818008448894,-0.68993915816150664,-1.1121186215046917,0.022732327359036058,-2.6300434412397311,0.989278806727802,0.063274445202311375,0.25168853754481413,-0.011874229561611402,-1.0485455877281402,-0.035524443279781423,1.99510327419873,-2.8181119376308055,0.52871681983844199,0.66457161937077824,-1.0519907909042476,1.2996993368935423,-1.0547135243441681,2.2324555221400013,-0.44082702061268203,0.18186368121451724,1.0051427413744924,-1.2885792328996122,0.44460858208898996,0.65285853951778416,0.14150679257263393,0.47476056153775442,1.4494120578040381,0.41456431787571268,-1.7935781432209379,0.95336390758393186,-0.65667499843279398,-0.15664324249713379,-1.4587643412420406,0.98738862765042723,-0.13739536802384053,1.5959593391361167,0.067061398766448635,0.0038989138902618269,0.6611706298569201,0.30466608836467834,-0.91717765197734569,-0.1335670753188572,1.3815250357401236,-0.41422023659502466,-0.38314893268120326,0.77456800411122761,-1.9917649476129222,-0.7171024736997027,-1.6577706623227741,1.3157715704256918,-0.75875847374623984,1.2718138742833474,-2.4662226690571458,-1.1957023465496963,0.34742045220453172,-0.87982650414957664,1.3715257055214425,-0.71220695743695328,-1.5454830481680224,0.61116307840642481,1.4559298046751783,0.24025013269282888,-0.24792541311744351,-1.2457227205476171,-0.16970375114505412,1.6769102793769861,1.3556981224220817,-1.8993843432404374,-0.7106616908844654,-1.442714867246069,0.94959544629814796,1.6096123902069326,0.65511588484519367,-1.5711941862995864,1.0732039709486203,0.1965289544027975,-0.4639323651963061,-0.6164667509857269,-0.30479709937783256,-1.2114645955440437,-1.5230416456446616,-1.2191695369456559,-1.9208159757232279,1.0481593369688245,-0.045370676795343665,-0.17262315369044243,0.40287845190957916,-1.088799584846075,-0.17202522158449657,-0.12641670169032163,-0.7148335022199106,0.74785001462685441,0.036541751246168923,-0.092891636911621486,-0.075176198596741864,-0.39992798339634439,-0.0627833454391971,0.9310647273031929,-1.0118643481219376,0.081826225739567646,0.64338199041956279,0.76228566194231873,0.1535577593309555,0.40186661324634171,1.1295504937764438,-2.5097421721195188,0.049248883883537743,1.350850972225613,-0.048720526601790812,1.86250404992511,-0.77266617757278766,0.36862298412763317,0.6182054405355708,0.87128294942011097,0.99354265139918418,1.2257710016457706,-1.034815470908137,0.39387624940798438,-0.15753008160764267,0.65287508004393313,0.81721802854503878,-0.6166494798728317,0.041158575232393559,-0.34083262153917493,0.87394921022448657,-0.41690226089654114,0.72447431237847526,-1.197481473840792,-0.21688613421408007,0.98944040116873888,0.24790489655514816,0.78858045977320246,0.10981556041921466,0.053160895854720405,0.93792997992731553,0.53211177494030559,1.471131903342326,0.57409976841630073,0.38886827240435962,-1.1052890453022568,1.0329766207659814,1.7323609616002904,0.68733739545385353,-1.5136070641969992,-0.5004939681814814,0.35096388647818483,1.0988197400166919,-0.3598247752962539,-0.99157284560687764,-0.13812640540762175,0.42023273056483712,-0.036069813424557111,0.3809317164944484,1.2335991235681882,0.93015928916328872,-0.079843397950095749,-0.11618145080555096,-0.24649756524733793,-1.1464502355345425,0.49815795938375407,1.2218313110403505,-2.042327565566695,-0.38195471823594435,-0.39708172701784239,-0.78380512958645754,-2.4219108598453536,-0.78178363300762554,-0.070280350133552882,-1.3459104174159473,-0.75363540416656138,-0.29169763830184697,-1.4306166089946752,1.6194853911596059,-0.18259675616387366,-0.95007477837333043,1.1845172233568488,-0.02536932918307052,0.11719771694192613,0.82736703858340344,-1.6448576609216947,0.89766440784180868,-1.007061562228629,-1.5633945426810749,1.1637728708466957,0.89157757298940432,-1.4962409740482741,-0.38827332207372434,3.3045857958044911,0.24396613172423642,-0.979587080134115,1.1233869303672894,-0.86906696618953505,-0.10874097225168479,-1.2510653408217485,-0.88984258957408202,0.033350786958985058,1.2769711999319884,-0.74904503553393675,-0.91886254172938409,-0.16736886623664915,0.24912682088809446,0.08405189861637874,-0.46270979721244859,1.3853636242245908,0.23044533786531365,-0.24110186395651878,-0.64884272490894634,-0.6723647406722314,-1.0848519806249677,0.95909516318857302,0.92241085183231941,1.3294101362896431,0.63087245670776415,-0.014443132134502948,-0.42714760087989562,-1.5955514542489053,-0.54650234779478335,-0.53466837268880585,-1.1208120168508908,-0.3064968344665075,0.37732635976500645,-0.76711524161298883,-0.36334274182600995,-1.6004924084487717,0.87185265301892456,0.79480946572160627,1.5377399263468281,-0.028816927318051213,-0.077288259230042108,0.09397883505902592,1.2410909931955021,1.1459442338393044,1.3055316302557931,2.023026141109018,-0.55421207180389853,0.076109595672344182,0.27233620417831789,1.5640286608151597,0.24771012523726579,-0.19033063653942456,-1.1631470820837617,0.10054351030971076,-1.3465365708504922,0.71432856646945886,0.64181986993638784,0.68125150546707447,0.046957493885730214,1.1073736004111165,1.408815077104459,0.2681557548578441,0.80821457323847068,-0.46720475159054692,-0.8625757023289875,0.77487282924720113,0.80820570431412331,1.5343037541862135,1.2851904950980237,-0.47695265062070441,-0.32695762729594785,-0.75542934169938836,-0.27183007233040102,0.047910230773281645,-0.25943433424950751,-1.0908670788109633,-0.48522164476987201,3.0936783108410477,-1.0657281753344738,0.69710911089220085,-0.18684853808199955,1.569686707770453,-0.68094809167208614,-1.2542505205142376,0.3465632286202584,-1.1336777998847654,-0.9705062583336338,-0.86318247875921761,-0.69432883557879266,-1.2155031499099711,0.49245188728781808,0.78332480308823915,0.34996992402891985,-0.87453306662306918,0.3854465693309243,1.0868948147493351,-0.27925723975971445,0.53792696420679609,-1.9942916918151823,-0.69634310794295617,-0.45254593466300591,0.52586325252858268,1.1943953001373826,-0.41757731052532188,1.3439759485122056,0.97453831470603181,-0.3162103147774053,1.2463425875092478,0.65907876006630817,0.36431667385173067,-0.50836999046619669,-1.136291741581722,-0.92601728548833739,0.32722183701007579,0.15909806581171163,-0.67829987760128796,1.2761282706662158,-2.1564759702928624,-1.1628321888447068,-1.0224957718317484,-0.88812840887928413,-1.5675686745269195,2.3611096524505895,0.807082443614491,-1.3854675208612108,1.7886608379701601,0.43587621174712199,-1.543727605468417,0.59887625480054596,0.45982833487246061,-0.85107301242990108,0.3518198498537099,-1.4024432559912705,-0.7322015418122213,-0.01813970722394324,1.437719348042134,-0.093604674316829645,1.9273340703675264,1.954512333791026,0.14831582356916886,-0.030154986537305663,-0.96255661868723774,-3.1571233327422279,-1.1696123610179638,-0.15852087173831536,0.56975944592652472,1.1734642730353217,1.5169694055103435,1.1990625745950572,-0.35798712469377197,-0.33702785976336352,-2.0453398881566747,0.41724309861833558,1.4653664406735261,-1.5413466725797511,1.3407588837113069,-0.62194644732092186,0.45221634834148516,1.6198658147320837,-0.70914478701059314,-0.80666418222264136,0.1164612598744766,1.2273285927377404,-0.36041881085345795,-1.0749185810849491,0.46068688251839041,1.5238203031657263,1.9022800603639318,-0.67460374822574032,-1.61129393692626,-0.053591026548754916,0.62440105753774067,-2.3310884105872685,-0.15052180056405637,1.4632356769119714,-0.69684864240154065,0.78314340132486027,-0.064405726610894928,-0.80189677599333586,1.6552466719214549,1.2200330186910011,-0.42096739080466766,-0.13718474996620533,-1.8008390449982956,0.68825337052040314,-1.6085677310971505,0.98421801241728424,-1.0123187789372126,0.78175837892269195,-1.5614826382042637,-0.12120337369133984,0.18190416450297045,0.24238616183247944,0.057427922453824949,0.88137190902032381,-0.45597255846426982,-0.84407873812814271,0.77287429606572733,0.86856857638501772
0.058965545729852541,-2.4181181544642256,-1.7325135404573893,-0.89906163140424133,-0.62263059452390956,2.7972748793288136,1.3750348595743218,0.090250784994610575,0.57959416739147185,-1.0010193891212285,0.59088745902957107,-0.18766977837062107,1.2679810004822349,-0.071857444035867898,1.3108688078743704,-1.401638231622101,-0.38775248812008617,-0.010832063382068421,0.98690230644243349,1.1669251751279823,0.50559238430052278,-0.73472035168092187,0.011595459151713346,-0.66519485482016139,-0.2008644411562143,0.57220786058880213,-0.072052287880222318,-0.055559850440614615,0.95131127049734099,-1.3721311230011368,-0.27501224349807912,0.71514162660595371,1.2006612266513286,-0.23830730565264194,-1.4175407577740575,0.70769472495022501,-1.1463841672523876,1.6843338103800092,-1.5309716046710247,2.0991910573161712,0.3837832324704572,-1.3960158461138101,0.79436239606394909,-1.3313465328270953,-1.0699602261896266,-0.027999777591357519,-0.49197588681539767,-1.3252922525077859,0.26579395973769937,0.84163757063415046,-0.80282347063954185,-0.22962358993829265,-0.61213440719626888,-0.26581613779844854,0.53450872396093652,0.45400015117608206,0.31090165507021567,1.4703434001361839,-0.040410688097644497,0.12543925792412272,0.87676731336838531,-0.85816102402054839,-0.49726359985275259,0.70920291776172795,0.13612197180068039,-0.28493060479657095,-0.61262350417191369,1.618274773270139,1.5708333918029507,-1.2435234882193886,0.28597347410843699,0.080798303406895505,-0.13848355091802764,0.44423221825917591,-0.8716129368220592,1.4094591535467615,1.6919876245988927,0.44658948119671305,0.73885592234951347,-0.85861097570531153,1.4151798498825483,-0.051241290490177969,-1.8801621221781755,-2.0656908395031999,0.15334659232244419,-0.59667298076608399,1.3608992071966559,1.9767698164066949,1.1499048315480618,1.5567175456653159,-0.2643572645765272,-1.3983852061268371,0.90821334340697923,-1.2835382071185499,-0.86077696028832529,-0.96795641526782894,0.43959017136552941,-0.018080309394344778,0.90575722629148403,-0.81590243602891643,-1.1449968608351355,0.1632137630312207,-1.0055338723037361,1.3225190463307031,-0.021870089892392933,-0.63320282862223276,-1.423542160011632,-0.309232407977097,-0.45796994378291872,-1.1314496921714052,0.015277705897272092,1.7765623464926139,-0.37672026544788956,1.8299608345706846,0.01771988030173317,-0.0085039878838465179,-0.027322099597247837,-0.60766091115500487,-1.5640229893210069,-0.91365603035587062,0.79471148020661719,1.421354980825752,-0.25704238406262775,-0.14796357693784565,-0.32354566597265882,1.1092819956666493,-0.66294504906218299,1.3587144867020529,1.3953598106868932,0.18235163030920909,0.19933272858832451,-1.2134154551979703,0.23868785471284606,1.0180494126366142,0.73626250504086721,0.047583140127286212,-0.2371521232042377,-0.93958801519328072,-2.1665040879975672,0.16734934339634383,-1.8800573909790232,-0.93760546953070567,0.044826639248267346,0.24782256889617879,-0.34721128148724423,0.62030609235420331,2.2132322264185404,-0.77039351642206477,0.11326190019886108,-0.54074560356054435,0.4094496774256155,1.5506664043072014,-0.098246429340311497,1.5679325141107552,-1.0965183832062959,-0.2922560645918782,-0.074337122736164898,-0.37035929615836111,-1.2228088707933975,0.95054158817017431,0.80144944914166505,-1.3820085810596954,-0.30241932202011806,-1.2466794436200477,1.9776760328269272,-0.25105505803304518,-1.1297188612348774,0.84698904919438167,-0.13718415942478263,-1.1308106398022892,1.0036379462484899,2.2008957346725211,-0.12976836385521612,-0.48482103482589023,-0.52547123911888527,1.63721841358928,2.2644476024144979,-1.5548159357880236,-0.78006100832843805,-0.0029756019986084013,2.9418074599755055,1.4906392500103165,-0.59406451114834169,-1.6439751812493266,0.49660352856649909,-0.93217933487434601,-1.2599794153467943,-0.069892763697361762,-0.12281631149919829,0.6031894656143777,-0.30767609068330215,0.72680439960301091,-0.6267096380969478,1.4017503798913169,-1.1065466537826816,1.584863817898138,-1.5098989020925009,1.2180880347791898,0.73956995118604818,0.44628863729295293,-1.1998128255261093,-1.8644249031141682,-1.1076526842035554,0.55803318773621302,0.7075545484783532,1.3616519058208743,1.243151838866505,1.4739065718913467,0.37358215922629534,0.29961668514793771,0.12047292922948398,-0.48456547578801518,0.38770336401849087,-0.45642000724072618,0.16658771946295939,0.17182771808830113,0.023338356695098265,0.52382489900451334,1.005878350200073,-0.67269437867551607,0.18015029648789105,0.038963013052490086,-0.65015415321701064,0.28297509349829658,-1.5453029679823138,0.70230391349529386,0.22070884628744261,0.68326444402917152,0.25927856984966535,-0.11609236998510566,0.36072611950971262,-0.069240442846312394,-0.24921576696778147,1.4599176616621787,-0.67685116548488633,-0.72393017067832477,-2.0022356142572133,0.28183244700038401,-2.39315776649187,0.016823799941502283,-0.86610723184187999,-0.63868803671879082,0.2163808417589683,-0.081149253278110831,0.73661498301618633,-0.27901652532333704,0.59549349176144029,-0.69229962358445496,-1.2399440754423761,-1.704802133220219,0.36137419543457533,-0.45957146210407118,-0.065433783792876871,-0.17230244108872081,-1.5698609493225051,-0.63773720745961393,0.64461922647473147,0.330421799355824,0.67555641158690083,-1.4611748937826934,-1.4982508241903019,-1.0800599638603277,1.0183751428533934,-0.35336425972661734,-2.6589365972421359,-0.19942855949226498,-0.42341865255182176,1.4290612899053272,0.97466974994171929,-0.10978857950377251,0.6472474726646178,0.6636345289079344,-2.8312800706954091,0.59904110809162125,-0.66056865661235165,-0.51856186406821692,0.89080579539889337,-1.8256547471914562,1.1284060448069284,0.4553127094983111,-2.3860612626131661,0.97458277530404058,-0.057019468313324141,-0.034768412448506987,-1.4564108075611899,-0.12184432289831543,-0.47023449745797968,-0.76862645537852203,0.51064271241633163,0.00062994438760440908,-0.52490940401139019,-0.9067021331932078,0.59745399025419776,0.88106210970661059,-1.9727064728642667,1.0531190515189754,0.77757398475924255,-1.7330130983843548,-0.15192111397883459,-0.59077771229116383,0.91992437666094928,-1.2379385016466502,1.0657477092495105,-2.2134023872806496,-0.072260492225372147,0.58610046957424133,-1.9828343860791304,0.43747567796220599,0.50955309745284827,0.20761525364330083,0.62363533035327468,-0.66271223524388245,0.15975517776772735,-0.64992267190025654,-0.34779983150250288,-0.53030536639369719,-0.4659349243157383,-1.2095513339009669,0.82684344482392147,-0.96168815407995434,-0.47375697878492373,0.40579527536374488,0.8332123063148027,0.3815630547455951,-0.59270899117895537,-0.92233893247730425,2.1333446280236306,-0.84619735699952714,0.39580788316441273,-1.3097621842247058,1.608339008796505,-1.7835528087195012,-1.1841979450919162,-1.3004204508172486,-0.0059339450289788353,0.38472869923815084,-1.053315062628698,-0.48026231685352266,-0.81600574930215952,-0.91011058063086459,-1.4155331025392655,-0.28694799188300057,0.205380308874614,1.2272212712426622,0.16356044169288472,0.8915429990698519,0.55646227885897814,-2.2018047011248258,-0.35743950371757344,1.235867904012701,-0.092182970170669565,0.015257686752730395,0.93286692438107899,1.7120405294815559,-0.17469407399749551,-0.092812978558867776,2.3883355577067427,0.1265316347481219,1.9051470846602816,2.2747268366856019,1.4777573633680308,1.0920829527897755,0.3729354093111501,-0.96272138045269495,0.37195103290989623,0.13953134636384878,-1.6854526891256782,-1.0324484736443675,-1.2638838985320424,-0.55689039609052615,0.18005375179771499,0.75533988095330973,-1.6803309883356456,-1.5273156505072634,-0.62100041357518621,-1.0528339599439245,-0.078787100297297796,1.7011971692437626,0.6876777284922414,-0.99066880517011147,-0.76480611686002176,-1.5440182239419673,1.2907362435572232,-0.44338739377582281,-1.198041065470363,-0.76721977740949299,-0.148194172089811,0.77479800901180451,1.2965102391555083,-0.4583927408778164,1.0091970881733521,0.64383079081374439,-0.37866562323437913,0.87497001703792143,0.20075489998119742,0.79008566785662249,-2.7646144114159106,0.77613062844529401,0.60366936523890369,1.3180586430429042,-1.9153389187323453,1.2145975430139109,1.3654077177320032,1.0331480921859146,-0.94894263418768876,-1.2233649258838448,0.16359276544359042,0.16287165535614087,-0.82557775609306872,-0.079503225110553494,0.68147500888891199,0.63843529231626461,0.087885547286758042,-1.1593023363916497,-1.0994535884291028,0.25624394841362275,2.0194033087657921,-0.49445711875156201,-0.87931442934803983,-0.96044937713998635,1.0120065086853625,0.57477784682528688,1.5811571242974789,-0.6872486182970482,0.21486480363973909,-0.42499302338661621,0.2949057951649286,-1.7378071278262697,0.13051560575055446,2.0644148809492302,1.3082359400104597,-0.38879468479274187,1.0056807831927408,-0.36758866465750623,-0.59510385991986048,-0.70982251301846899,-0.044688390450022757,-0.94628525359269322,1.2924385859164946,0.54398759550164411,0.15902696476237066,0.031990684442811439,0.33484954914313553,-0.80603078419756391,1.7707016280364105,0.52342653500164338,-1.2634931537185514,0.046004533572217954,0.37641465284900644,0.44188621703781772,-0.47424517086641577,-0.22907163929227103,1.0541285987801299,-0.10371460211288383,-1.1674732232572205,1.4046722345206362,0.73749860973293069,-1.1623548753199189,0.19759129046859317,-0.6998426079978266,-1.1860469863854461,0.6314658788502292,1.3249316886696474,2.1641677503343897,-1.8592634664686221,-2.3973616861705116,-0.89321608807478703,-1.5276580113614768,-0.66310645312587457,-0.44993548352016199,-1.7070623502146478,-0.87520461203099842,0.24014120889065679,0.94411807118639957,-2.1802790298172363,-0.30050470036829502,-0.57987449758682796,-0.9875029521253853,-0.4754353648175918,0.14057992677834844,0.020728826056999335,-0.49649760585268116,0.48510194840207466,-0.75341259371829594,-0.35150707854736674,0.35253468539608335,0.25248224216142889,2.7071583101910131,0.34110579293711601,1.0258068320995943,-0.40585115966915009,-1.9051051124711913,0.18294985121108687,-0.24555284922367021,-0.67541202561795954,1.0970905753897158,-0.00016079019701744718,-1.9240979368863449,-1.5607509159531381,-0.65490908333731745
