0.17078554471434501,0.67065138010102987,-1.0047608680431466,-1.0974444282238525,1.035377469896261,-0.19376042527425516,-0.64438900540977528,-0.6310098821012281,0.095686381938828502,0.45667017351642858,-2.1241088586469403,-1.3933949535684751,-0.4379878232719504,-0.53816891536101419,-0.54647699850737164,2.1468781462053808,-0.23367048677856089,-1.7344736919381141,1.5086033987709806,-1.7537998637584891,-0.99042514133406345,0.39130292376659309,0.38163683492051292,-0.18325493517550134,-0.91652880241491264,-0.39695519901006754,0.24945797165842967,-0.7030058083617996,0.28001898494012528,1.3300763790408321,-0.65595536068545302,-0.30581246314140664,-0.20750468103347836,1.3812908073125669,-2.1505199167330971,0.88958203879387965,0.54447591699717468,-0.81778545123041946,0.09227860798628186,-0.13276623021861728,0.18754816255779774,-1.01007139484215,0.6356537283360153,0.22675089661549819,-0.6165455211382489,1.7626182260592209,-0.52312326209363824,1.936553171957325,-0.1714508446213642,-1.428168471951444,0.38159242575698393,0.86987795240149957,0.55715370905073802,0.4280405378234719,-1.2726612242608433,1.2452700092028004,1.3937825411971874,-0.92964717333438629,0.54742638043399516,-0.85930134653529744,1.896564891488256,0.089230826197562077,-0.64361400956171799,0.87426892020135083,-1.7376500560388819,-1.115719251751581,1.6661984546090614,-1.038607625591309,0.128513284870508,-1.2461073703705918,-1.8591081012581676,-1.0470925365281445,-1.6818233689278423,1.3412377565487732,-0.81180172456028965,0.33803830303228954,0.098198357507269907,-0.38799760122780719,-1.9730254084001968,0.60284756764549319,2.0370976820603564,0.61666066160721134,-0.049842150532076482,0.89291438485221919,-0.6829228793003832,-0.21739163238393738,-0.97220364763551159,2.6509854218760993,0.27533538250089384,1.1306585638972386,1.7030327379935863,-1.1416978473362673,0.25101934857820096,2.3244582077020173,-0.17146545628936205,0.4423010389642717,0.55961545765287801,-0.20385497005176501,-0.24045451291465564,-0.08126597222056188,-0.18544507789424677,-1.4206727541210424,-0.56123178451536293,0.58072789126573376,-0.31046480427063411,-2.6933072320413194,-1.1739037629208575,0.012150944528122386,0.49522715616167795,-0.38355767077883401,-0.61265520616082358,-0.086242635704401396,-0.091332846315317504,-1.3349621866455441,-1.1767812302689649,-2.7000924217373989,0.49742388526047293,0.9295664283851881,0.089595556734301501,0.52544542065319044,0.65177104924532803,3.0309818791579559,-0.093815662409279951,0.51899920132947563,-0.57446033048320744,0.13567495127169368,-0.47628412072718462,0.12010434629320894,0.0034405660727053491,-1.7685515559142038,-1.3148265832596056,-1.3196402650375769,1.7881335986922759,-2.3735607991454128,1.4958707547209864,1.9879791782537033,-0.81898019410840861,0.5619069760138673,-1.2407361397996137,0.81459281966215613,0.051138743016892335,1.0462341167755187,-0.22462329994925079,-0.46661502199662624,1.4895478733791718,0.40175164506602912,0.3738636347276531,-0.061755051869659211,0.99388864113075903,-0.43211360143506916,-0.22612443919447622,-0.58669884728720401,-0.83443851947270375,-0.27451525915968961,0.23434662202188786,-0.58576357428860715,-0.94107263542323727,-1.3992465332562962,1.7192181576243801,0.18814215123619088,-0.25212210891483477,-0.27091792339853205,1.450155399215959,-1.3598686001202513,-1.2425052565766772,0.1470658835531817,-0.91949427701516429,0.56656046932235371,-1.2063698964515028,1.2062507536969025,0.63652486167354017,1.0030072831759507,-1.005786990127808,-1.0838649541405447,2.3183064707346484,-0.89772240564583061,1.3183936652912125,-0.095968136777085836,1.8368409878549292,-0.98435713497857269,-0.41225973037443336,-1.1364656444587884,-0.92152004333682946,-0.86802916439635336,-0.36772425913811141,-1.1620313842439922,-0.47985200727037003,-0.26985792248121515,0.043630178754119397,-0.94998012653783026,-0.36183872665720918,0.017554143094201939,-0.56956627261406079,0.59443120110718994,1.010932180074354,-0.58103979656449023,-1.0683426353849432,1.3786637662867121,0.61029418398514912,-1.2689156073394836,-1.4544654147285485,-0.0046958381369369842,-0.1138610875401236,-0.37086436903059228,1.3511484364699866,0.30689221323819693,-1.9368109836642076,-0.52275671121369338,-1.0484689537521004,-0.43594863818596241,-1.6724981905837082,0.0069236977252883983,-0.052584115213533227,-0.077582282645247261,-0.39825292576649834,0.35256461207322293,-0.51478686800523243,-1.0515213414302693,0.16314424095864463,0.094427146691549363,-1.4311621369065317,-0.98281602352913366,1.5495250927878126,0.066693255696945744,-0.2205922294835756,-0.26587592748447642,1.2035744566108624,1.2839854171641452,1.5864350652097046,-0.26852381703079548,-0.59471230807451447,1.5362783113901721,-0.46283410207765951,0.39871559233684728,-1.5767561334855544,1.8968138860130701,-1.1596090826241756,0.16246976275277006,-0.11531587082086291,1.8085912528353736,1.2225914168111232,-2.2908755689982079,-0.67726101700449426,-0.11865104418653355,1.4227925875067335,-1.156595635630385,0.73071006819972584,0.078240237551757102,0.58008874722282833,1.1334743181941804,0.41628154461064976,0.28495052799241616,-0.78989482582254755,1.0636543900327053,0.88475159437839834,-0.10016141177204188,-0.37902266396434781,0.20628820631789288,1.202953185815822,0.64128432539524283,-1.0625378834626356,-1.1781107033191232,-0.12609134435151237,1.2214091092495949,0.29776421895023103,0.33659372721441827,0.8701081411072189,-0.053209021063511587,-0.2011604623968356,0.0039068897176456245,-0.69339075337694778,1.2032940963405934,1.1902645063602084,-0.8203964424743021,0.68893200344469629,-0.54252911917990321,0.97509275816789165,-0.21146258906506815,-0.95495971922759149,-0.8198377848490308,0.74403171339562546,0.5783328899341118,-1.0412560219190452,-0.28870525210226483,-0.39313622576046925,0.82676869123914043,-1.3842559268302488,-1.0777787868649489,1.5505352206482348,0.21624996887900935,-1.3152997834836568,0.68429588679881326,-0.13495565608040699,-1.0703321101134189,0.60928282768497821,1.1534124504734611,0.31951617709194075,0.29727645231747779,-1.6051664383878197,-0.34982196963530798,-0.28315691320154501,0.048652239864003549,0.45435055636634847,0.29166951584097006,0.5351326912612947,-0.26835221426205919,0.096529195867011891,-1.0417579526609861,-2.2881246131414543,0.63713559538723452,1.9986731224542758,-2.6969193621038006,0.75584792703365933,-0.53609869399330756,-0.024394534055002089,1.0593200942221874,-0.44612197876827869,-1.3599714874712114,-0.27492910971745477,0.2354924262349781,-0.58921083792804452,1.008150554525481,0.88870452466465533,-1.0363450043946829,-0.4222683044494655,-2.4138532900997229,1.7562563026082509,-0.059050782619014489,1.5827204361351914,1.1198580150463691,0.70443118429469409,-0.094377761538286503,0.32299272907756182,1.5018074184559242,0.66477845113839829,1.8419286425054846,2.1033251253897869,0.97950603949315351,1.1147459512328284,1.4447425473102136,-0.050815460757311443,0.31698535229045183,0.8702374306902787,-0.73247483037712613,-0.65338643938374652,-0.67407953533987219,1.7758101914725326,0.42233325693686702,0.46880858395160419,1.5823179606614859,0.22179781077812943,0.50275779489604333,-0.85277804667849388,0.32127376757492537,1.2557388326391805,-2.3625884191917788,-1.4609157500483874,0.083739607039506503,0.058651831622499824,1.7021950981487495,0.11699790625802568,1.9177294494497805,-0.12820701731192333,2.3903501055459753,1.1561041855489569,-0.88443354610498981,1.2713726138948989,0.11618429448680466,-1.2950981930488537,0.82876414264039411,0.79097459071899268,-0.19909140081856519,1.7179417673468396,-0.54676110476524731,0.30821348853651798,0.22806046541160585,1.8449889141807145,-0.5134198926385396,-0.4919621161297027,0.77057347309366742,-0.81856669650302449,0.32695848701190999,1.0293701716151524,0.013398220514195496,-1.7272337719956901,-1.1242356089973131,-0.18336691670758237,-0.44503877236742928,-2.6395945291945071,-1.5422491533197242,0.93863568054581892,-0.1889166892052955,-0.23971715751543091,0.23630497975175707,1.0923798455821161,0.10227727828556009,1.2912218825464992,1.1985037973871657,1.3668502504985707,0.90855706346042497,-0.023897997742796322,1.2889894300856848,1.2044624846823202,1.2681802541964624,0.072926660825509595,-1.1596646895520981,0.51212526582393758,-0.05134124898423998,0.87146932349629747,-0.36463699305943104,-0.76320299226132005,1.2912432313304396,1.0887236790686923,0.8424743377042625,1.3190445068734682,2.1031657261927692,1.3909629542326147,0.70512124100936791,0.024838503037418927,-0.88982185764852695,-0.31994518361467733,-0.62400609204161783,0.13119587108781705,-0.186311506287894,-1.0798279435135898,2.1763550542959611,0.056454800615267864,-1.2960824059346725,1.0924075219819647,0.53380073830480856,0.70871279412445143,-0.31738507417768469,1.8747582611992912,0.55179481613751569,-1.7862790885695929,1.7678416505536498,-0.6480186639133898,-0.12862708995787878,0.37704301637743248,0.020286004920915802,0.97752612761940583,0.2403541100925678,-0.061080518059820038,-0.19250941667971286,1.0444065698061566,-0.035419360252352074,-0.44280581758233473,-0.80451159320804166,-0.024810625758945843,0.3926817849124174,0.21043498503222663,-0.47351459987902605,0.86325817322010723,-1.589846685627436,0.79027057283493107,-0.16128611309465035,-0.10406616173835465,-0.68330867256851369,-0.59501544010609086,-2.0409841332024845,-0.54434185741911745,-1.0395341251448345,0.16980600324569411,-0.56326413499482741,-1.6048216450718145,-1.32104857857545,0.0096307064833278441,0.46000083968835181,-0.0125310289703178,-1.8714428781563697,-0.6434095537784037,1.7373806398954454,0.89795933503738534,0.87213781374019428,0.8050386671570916,-0.27682660256292502,0.12458907206954921,-0.88476606835208405,0.058768248173874008,-0.067343623306997363,-2.0819944585147687,-0.58716318938878009,-0.073299944067204692,0.8470264691138053,-2.7964391620732028,0.039961144094756158,1.0976993783342146,-1.0389374116573393,0.48918770977830844,-1.4330313444881213,0.19168676513899818,-0.25957854099222927,-0.23012862627012184,-0.47218181387663355,-0.070031645057800268,1.7139828465645384,0.043047476467112628,0.52599595033434954,0.2983187272974494,0.26357933447365239,0.25255656282683941,-0.07626151443211926,0.18592036493378328,1.9760610878011826,-0.31801409988989571,0.12616107042756436,1.6397888705166985,-0.72162802939976389,-0.71141456114817359,-0.141646520937451,-0.97755351156295689,0.85220681660056186,0.64852379472451649,-0.5986747473131564,0.60341200074545898,-0.66349252033958506,1.0831024100426152,0.35683174999645145,-0.44901506955579734,-0.88541176909082286,1.4060217807744901,0.13502516477225615,3.1914582526811643,-0.059885905108732443,1.0280178334179371,0.33013572374691363,-1.4592048634006378,-0.66914881240725166,0.14953588673971646,-1.5458600904557436,-1.5353091663801688,-0.21614183886746571,-0.40507424604320474,1.5489367020935216,-0.2772995247491617,-0.90440850036014186,-0.52916143439885588,0.021890225543761625,0.64771529640396519,-0.3641038605178229,0.46548707711239717,-0.98482117640952216,-1.1038157918699092,-0.064452844688515379,0.63175197304197117,-0.39667611944127079,-0.88595862688646076,-0.32320928277067207,-0.42147049640257239,1.6063885573199144,0.13590206060848659,-0.73471318938619834,0.2277192497278952,1.2505825046985732,-0.13699074622629911,-0.96434418239188913,0.61870849237985592,-0.3420427266799983,-1.7250477797628239,0.74208798881916216,1.0162692046828206,-0.2153628164358162,-0.25218153907838031,-1.4963497331109266,0.60157837498224809,-0.97367758011637096,-0.37000956732147616,-0.45287600802825484,0.22293372434579106,0.23423595903492661,0.36552416381317338,1.2260295743372085,-0.42130652522963019,0.99589014964024725,0.25323428011101984,0.61436855791186695,0.55316784020433285,-1.0090614548377725,0.73039595962473125,1.0063042324490761,-1.2212229799489116,1.7997863484660088,0.80089457918833895,0.61691419035333972,-0.61336922419347129,-0.70793371239336378,0.85823508547806959,-0.25613154027909896,0.92392472060723119,0.47825423902211334,2.1713693750266629,-0.65239252827970551,0.023646828879965155,-0.93390958345463992,0.67798227151375734,-0.028569717744858825,1.8467222285895462,2.196638936818609,-0.40951170602697456,-1.6013959796900723,-0.24167812374854428,2.0251997607009238,0.78768181560369455,0.20261486646085874,1.201164996728999,-1.5850415912031326,2.1823953005176526,-1.1763581026017473,0.87827158951457096,0.20423045425239422,0.82880902941689438,0.027810868630641489,-1.5592735599978658,1.3290995028586048,-0.28914536499155491,-2.0917619194056605,-0.68835877998012884,-1.4629173315588724,-0.36067930240073304,-1.3890888828305614,0.5933069153219489,-0.24563544992075376,-0.67578034521256325,-0.42460718714612128,-0.14637540757423576,0.22473776986839192,-0.3553133217733615,-0.86221126473145338,-0.24954297022786884,0.0059988942054477971,0.18551559124697908,-0.97464794092118634,-0.2712872382706506,0.58069346675404776,-1.4762492981036417,-0.25116929133632659,1.5612265401381955,-0.39611037648177944,1.5597034579954607,-0.4252522672156569,-0.3123051571445874,-0.67606742016660215,-1.5997001713581482,-0.04385787751934845,1.6200492675703151,-0.17458286563473902,1.1772758860015655,-0.6495097779808382,1.1700508252903743,1.5084520657828131,3.6836465312598756,1.1313243574723764,0.59433917735869546,-0.024520713682372318,-0.46037116893434721,1.0420180457055854,0.99440400354961123,-0.23841503873629838,0.95221100446416274,-0.75807512346633443,0.11062261322118572,-0.12173114227084735,-0.60973159970704094,0.45227939708911397,1.1876140838761187,-0.68751628435101508,-0.33139469897196222,1.4487150010585659,-1.9777106974391532,-0.95602216560740638,0.13147940967495866,-0.68580735039109952,-0.51554330172214102,1.4997163262789841,1.2359010077250754,0.74131035264108824,-0.49256600604421291,-0.99574707257184047,-0.98380184660919423,0.8196684135279132,-0.63826888221602274,0.80796875610417485,0.44247046113166549,0.87572337015748258,1.7283278512754841,0.59218241972323449,1.1330600677232807,0.73296145168599791,1.6605097747358655,-0.27251012053240342,-0.66718076619574818,0.0082761637673828981,-1.8211639172135679,-0.46283324412269194,0.88585885856805635,0.34624391832132018,1.0134302238246835,1.7202668386261382,-0.12591689741102463,0.23225220727566534,-0.52623162182128702,2.3715009402654017,1.8111480159730331,0.77905059984572189,2.0215090047112887,0.0013662552281160447,-0.13565993960158199,0.1120209879447592,0.31492283875865323,-0.90376279911863888,-1.0275281547962865,0.94669405511933846,0.20770201315211614,0.022966739952867375,0.59211667799225476,0.45334350830789516,0.8387603796452695,0.019563375443242909,-0.33256250185663422,-0.8404578988374467,-0.17595683244983715,1.2506901223817148,0.49701528540779061,0.91075648972434564,-0.96890332252035893,-0.094581316378917896,1.5720213552654876,-1.0633202651191163,-0.0012616154760011513,-0.03998777389282758,-0.58130684724071802,0.712152498407013,0.35252192544677718,0.29314731995280907,0.36062043344842093,-1.9205362966354875,1.844871240703273,0.61772395334943997,-0.83514319751807897,0.31481101521341026,-0.6239414214419613,-0.083882107822471214,-0.56853092268141636,-0.60872965667746892,-1.4004190688125471,-0.1689468164132836,-0.66295146445555797,1.2151506214379091,-0.25995339333022066,0.94646076281970748,0.95950079110669007,-0.88996290898015817,0.4935925667123901,0.43000698672393389,0.38526841179841209,0.32098946210619517,1.0304717908451555,0.75261658052037883,-0.47292985903998896,0.085963262928556314,0.49604335396552124,1.3242954777884866,-0.51681967665010664,0.28931555910819717,-0.1149571754814534,1.4755819393211975,1.3282615354541725,0.052675440132447002,-1.909113764616958,0.15960990039261927,0.14538246454363171,1.5294818689416365,0.87073676910509057,0.63469269262084738,-0.18445275089640056,2.5455579775199282,-0.98294418652209481,1.0588121210891077,-1.1614905037053282,-0.4007404525731017,0.42664321624397478,0.65342158119591753,-0.14824601877347252,-1.9013437617823161,0.45924955266338902,1.2915620963323344,-0.35711054112690543,-0.15404013575470954,-1.9462742911444781,-0.68039826511680934,1.2261330606873697,0.20798794266304471,-0.027829776965843985,-0.53212875906754686,-0.78275190231050529,-0.72205076295931037,-0.60482268016865093,0.62846886397747059,0.17386162600405175,0.13775726646799794,1.1361875200641902,-0.28886423714702897,0.098181018173980603,-0.5943916523539271,-0.8811133465490133,0.13983536482240863,0.23167158639111257,-0.35488115076526661,1.7792581073239571,-0.74302530158319047,0.81372051222650743,0.081197094274323811,-0.49153140387660571,-2.4186037069279887,-1.2835601222512125,-0.17264123846928472,1.2085374741597135,-0.27908372204238419,-0.18919478022874514,0.52109534368364885,-0.50800729085359342,1.1160801583666937,0.026552317191423001,1.6841867683152598,-0.38758122328840011,-1.3859756217638413,-0.44190429869888304,0.23493007511642017,0.76020639967397108,0.24788068497045698,-1.4354284543915774,-1.4356347711902389,0.23959101491656856,-0.60559413984582555,0.97837890055548782,0.029397051684926692,-0.1447986229444107,-0.47270953183455011,-2.0438249133626525,-1.0166498050797903,0.84384736547050931,-1.0999008690147656,1.2459328228726225,2.1535744523794214,-0.17994948344927875,0.35258159774294018,1.620297289469256,-0.021806343997088831,-1.4746087700699748,-1.1672065462582268,-1.6668718951311643,0.57239157090083204,0.47371894963889816,-0.17097244311610996,0.35834093312189652,1.1670653427543383,-0.23554937474297374,2.2266397669058375,1.3704981050529863,2.3993999852033507,-1.633539248622508,-0.9290218990523611,0.87789965137333781,0.47459209442747879,2.1066280182275028,-0.14841099466232915,-0.57026155795753053,0.68593887958657973,-0.12821642957199758,1.6327022223480609,-2.4185333274784582,-0.64303813400305188,2.8789404502369762,-1.3300311680177359,-0.04249307890104425,0.46608213749105909,0.40798819065148684,-0.078667281584620358,-1.377082106740285,0.10999529862050479,-1.6642546990703906,-0.16335048453820347,1.0962757618567043,-0.56389170993446225,0.8311186508237195,0.68886996069398321,0.059372822929096285,0.22809161466460107,-0.025276866659471195,-0.13546174065902503,1.7048339147119793,0.80877844156863632,0.055212340719590622,1.1872215179576786,-0.023815928461366806,-0.84792405409759297,-0.18052454107713081,-0.79703398787150981,-0.54271551144574048,1.2232242084537419,-1.6055644366154969,-1.7223792090590984,-0.045066573338592077,0.59060325202647335,0.44405179218249013,-0.81175680244802861,-1.2419370529675233,0.74667730240877039,0.30932624125621477,0.16172238812939624,0.45190737155623939,0.014181428070741815,-0.84644390315381157,0.053090708713189425,0.1720732589770084,-0.94470689978390199,0.41213019062353579,0.27700132310673625,-0.13415936201621997,-0.90649293150975674,-2.5285629907023148,0.04840678889071974,1.0218449619912371,1.2402817134214401,1.3648585360353427,-0.15436332085777277,0.40457709697793465,-0.22269524866586224,1.1197845107509576,0.004264519204620577,-1.8662348973121916,0.73576239757785877,0.12418495035942022,0.63216754114135953,-1.3504858167379599,2.0231445724598207,-2.0614046082874351,-0.1206169948698886,0.74885144282103078,1.3454961130058734,0.15667482446587824,-0.32160143327310453,0.86765202154838739,-0.99783704727419154,1.4320554319813599,0.30134979418183011,0.10475404619700387,-0.86523397647812883,0.97535820807881923,-1.4530638619253327,-0.75535900409047407,-2.365230315903271,0.90649655947004293,-0.98082006529174226,0.16179354142720401,-0.23044322678264811,-2.8995931729263291,-1.8348790173308969,0.20343278716548172,0.4610392095755958,-1.2263017674538466,1.3422352394964907,-1.1434852687564605,0.083589485066523028,-0.093223050236224889,1.1889005669181352,0.28780971631926228,0.72958006544300136,-0.79996114824756115,-0.48293631142488885,-0.83980007404528634,-0.16287474198843313,0.43198835888684428,-0.24986644360277169,1.2923418159363598,-0.098796536613304745,1.1106028740823159,0.41201873223774654,-0.011823471669017217,0.78030878587766306,-1.4059533585489843,0.56548551355355381,-0.11350837247510365,-0.97067204592922973,-1.0287574333354326,-0.28939605968265369,0.1292132652989576,0.15347841561943015,1.0234770684810435,2.0609228361383942,0.93253801960050364,2.4675183223129218,-0.72886759554635394,1.1795857181961862,-1.4239650666927022,-0.17335097962238105,1.010900516258979,-1.1135097567095411,1.1137513599047459,0.96884592413572279,-0.80844620974864301,-1.0052651143739924,0.46098282737499863,1.37220893028524,-0.34676984101640801,1.1731465786999864,0.58388675555795844,0.96541566057658601,-2.1719103834301148,-0.60751858488609278,0.45028738934135371,-0.40769517295843594,1.8627308159322098,0.59702669072008763,1.302950797177854,1.0782957541751592,1.1063809294041149,-0.069755759700006331,1.338355594341017,-0.0072763268608498277,-0.41420824446752591,0.8113051892579195,0.65177141762381319,2.462247693376221,-0.87571507869629295,0.61545471673184282,1.4144446460941116,0.12434794804763155,-0.25936167265795451,-0.042251383026504788,0.13266562698495005,-0.85599150068092911,0.024858792928532179,1.926571602806374,1.4827220823321061,0.54922964282831699,0.37480061520189761,0.025786491669329063,0.39226519611055538,-0.44215344069898338,1.8892408351457988,-0.75192773389601275,-0.6588301004672622,0.1622437425216719,0.46817403864522805,-0.63199648011925091,-0.44094613937530197,-2.053377647416617,0.37957806804593314,-0.69069437330430927,-0.9676980476991216,0.7125099797404898,-0.23176773128240444,-1.4265056745759526,-0.30817299347533628,0.40364352116303504,-1.0388123780786922,-0.88143135842866616,0.06348249402285483,0.92872886200799321,-0.90401425128173629,-0.0077035077301663831,0.26432034611297006,-1.1202036623583012,2.221231057104613,0.93300201825752904,-0.84260176353291105,-0.1186379008626664,0.17661316649105305,-1.1378475153518295,0.7333450151065718,-0.74887920429940358,0.18862468710249819,0.41528200243179864,-0.27647006278612157,-0.49808272349878996,-1.032819507150736,1.8163911284883194,-0.74665283734815113,0.37082502370618114,1.256447920135916,1.4201940058762943,1.2280142042970423,0.18600170043979652,2.0310726277835722,0.055393895844218922,-0.57361294534542517,1.0065806484844622,0.26621366324660684,-0.27635585085413472,-0.19533346630529244,1.2766541348482652,0.55402224963662494,0.38025203081246428,1.0160860340584199,0.173383199976165,-0.24328671597209525,-1.7615661871705017,-2.2368225984634282,-0.75654185312086042,-1.2605919594222557,-1.1922344867276471,-1.5606128145774263,-0.91621042247920914,-1.2899271962766705,0.14120239843798513,-1.1127355463861923,2.2691892768250845,-0.06781390063334862,1.6620364774782677,0.34587877167150821,-0.4436827612994515,-0.55672230499392861,1.3374429215387931,-0.4466610082252811,-0.26021375477620456,-0.037970386839129094,0.011108040318696877,-0.24601403162531982,0.68433067932189862,-0.54016557006905486,-0.61799090598951767,-0.368186998982238,-0.49100411239767811,-1.3591002916705552,1.1606608613464915,1.1053838294676022,-3.2107285821166416,0.80748656525232121,-1.337967324099212,1.2465475024461785,-0.52598256641078633,-0.023525398227604646,0.47932987656840081,-0.52651742204111296,-1.9390629155903114,-0.55777668819400938,1.442229738248114,-1.1976256033758292,0.048262433518283271,0.39695737208485038,1.9034888287117218,-0.23245936725590491,0.6155443084280422,-0.022311715982022685,-0.68985444487594472,-0.080980228366074311,-0.008163467650282372,-0.39144159614181523,0.84855520804157858,-0.59744283100934081,0.49260015446987659,-0.25802202978200406,0.93460646176971773,1.1490653237743076,1.1989254978615951,0.10267190680442918,-2.3898594466485328,1.2488022120858302,0.012199084471260516,-0.75897410035984714,0.13670034794446617,0.44834929533484141,-0.37312412803988576,1.4350221794673408,-0.563932693929174,-0.29046620077755941,0.80680587673784698,-0.12702340927723033,0.11463859584168232,1.4405112712450872,-0.19370468015223988,-0.33942146002511836,0.86509090835191382,-1.6347181753809448,-0.45558610024044222,0.78076344447491797,1.3859487444109748,0.19197868238301849,1.0382847409842715,0.63251650542870497,0.45999243020699287,0.98279441282316427,-0.62388634807386811,-0.62000711909432726,-1.6384117233044078,-1.1773943201184895,0.10745060408953057,-0.71494648172893716,0.18182454916562807,0.17997417596683035,-0.43026911031389153,-0.84522849878795381,0.81291021593161361,-0.97188138991619399,0.36420025369478753,1.5685363485585233,2.2330288558981932,-0.79363341698738232,-0.96595275494359734,-1.3886792585310943,1.384168234993743,-0.53729442841049579,0.084686177481485991,-1.0702761360774076,0.20835629571104444,1.643373572689045,-0.47498459525875025,-1.5453774196738788,2.5878308394802807,-0.073797442059559432,0.96597952297556466,0.51082840155829612,1.0320002588667547,-0.082715998301851335,0.076946745864385546,0.064569178554235301,-0.47062536449987952,0.20988199289348886,-0.71778228918366704,-0.91459040212414444,1.1707767832532718,-1.2484614432795373,-0.11609317101930751,-0.42091158480555851,0.24819859948430129,-1.1565334286239983,-0.14773515358536252,-1.6653178163878966,1.2407498999792455,-0.049315320999254654,-1.1836896816366629,-0.20765125567078579,0.60922207268803363,1.180723853775046,-0.17953260725581996,-0.14445789738994394,0.074125438037487695,0.26345093530379199,-1.7284168804102873,-0.33487850312146716,-1.0368924406779305,0.77489344012253181,-0.76722291343880133,-0.19446496148861067,0.41461339593480273,0.30874592726170486,0.8057041063393976,-0.48057600033940479,-0.34972987550187745,0.059867618520142163,0.686363747769837,0.53652281061804996,-0.8469264806989002,1.3220139994854889,-0.35326624471707535,-0.11948355010262156,-0.18194074372171698,-0.23882358556399516,0.23004637821455273,1.5711301023067656,-0.63865451954617602,-0.12243839985542632,0.078443206573110894,0.3973300985738642,0.62469809472216342,0.085749449669472871,-0.88714844333157106,1.8590933768325975,-0.099168055074944944,-1.8808632048565304,-0.10648113095439042,-2.0387773500968902,-0.35613349831507779,-2.6567967054532198,-0.49890098359773932,0.34381706193999723,-0.62794790185555527,-0.9300898181619478,-0.57738036351918298,1.0706555509121234,-0.88867736655566665,0.71439397765824841,0.88464388355237666,-0.1911407844565032,0.63264049485299945,-0.82984313873450666,0.4346578380891436,0.97719007281652337,-0.25779995515065984,1.4051198743791109,0.14281865628685952,0.4354724436325127,0.22861055025170357,2.2212589751545244,0.66230603485084849,0.85762109002398679,0.71688779380810219,-0.84674287548471605,0.58343780471733298,0.0014285323607793438,-0.61003440874581882,1.347918138977156,-0.018004777614610674,0.036929125447334045,1.4459257133052461,1.0788910424594305,-0.95798541571015328,1.2038096086805274,0.29884944351033116,-1.3317995697236988,-0.29128203077952181,1.9547032204154748,-0.084946375441550426,-0.062917195447901697,-0.9981965427741154,0.35670718663097517,0.39309063681226486,-0.33876624781504117,-2.1273776993149576,0.89138176852733075,0.96887799108407169,1.2976178254642112,0.63897769676662131,1.0218826898717328,-0.82812511334111982,0.35399145787079522,0.94938868200229287,-0.071769524329995116,-0.21280615746236345,-0.0017300806002551585,0.26596886336848291,-0.31373806248413422,1.4211666045047873,1.1691322239681452,-0.01087302581256422,0.25456348295856174,-0.67025497494924668,1.382101472624927,-1.5873544678651674,1.8968910650294732,-0.9792171853487599,0.9134379160296725,-0.53029017513677956,-0.41301825202279735,1.199186361974127,-0.9391738041728952,-0.20487330345268662,-0.036587589223980616,3.4811006891231293,-0.26366237326732278,1.0950478991866821,-1.4496193529758119,1.2125733186632193,0.96431287759674567,0.69423339771600179,-0.14191632551330619,0.39982550793665977,-0.096930642496967048,0.64778903316438763,-0.41957387223177067,2.2127420292137012,-0.71163709520714713,0.033656270649156009,0.57151963225670255,0.79402313108079325,-0.029323113567656298,0.68016147356730861,-1.4555796779229664,-0.13282471510411009,-0.19771774723957941,0.92765784339779511,0.56048648682566016,-0.71885237260652413,0.15000574385622206,0.85614474705008881,0.035252842622171612,0.15011419704655982,0.23254582167669074,0.19923098402738534,-0.023458339411542017,1.3025873228895752,-0.60785258425989297,-0.22287003498380717,-0.010305012742431148,0.96154395068197029,-2.6649306146194989,-0.8824803893812504,0.83082769185264838,-0.027012043300507743,-0.66134911041386757,-0.13650448913008548,-0.66079644535648829,1.0219317113029378,1.0523856500410025,-1.2082997817822501,1.0382829036125729,0.27966998055079423,0.68331234339396607,0.6720884124086367,-1.1216622831116225,-1.5233384974620161,-0.48460179022582467,-1.4568179829634467,-2.042059093795574,0.74619965937162336,-1.0980504957136703,1.4881876884177869,0.010883720476607808,0.37121480628788017,0.91543017270987592,0.66579352506162826,0.24870911097712917,-0.75139699315540931,1.3439849003907121,-0.47473145405588579,-0.7886297093905088,-1.2333064701318457,0.10098623229658486,-0.03005760154136396,0.36905918533955634,2.7552675645203446,0.22261766938112926,0.49132377307708081,-0.10834050403764622,0.49876115067840149,-0.85609749782981004,-1.7403873080650636,-0.073215179780371939,-1.8368676850466088,-0.20545824106994443,-0.27225093464840039,0.041622114885648202,-0.5049128730869864,-0.42853486546963243,1.6375662500928441,-0.97177541079450724,0.52357314674363287,-1.4634247351038328,2.7835222848006111,-0.09312185162615387,-1.1801588993821819,0.47829485287176704,0.61329402800512933,1.5380276709588705,-0.8053107625460777,0.93407884657845408,0.32992194707548839,-0.57809595336022623,-0.79712320938232584,2.073829699488043,0.57634361935859435,0.20721581323403981,-0.32874246399373747,0.55138283458652781,-0.920740726005845,0.28333109892818559,-0.33001412960737325,-1.3845300763296684,-0.47956277707385014,0.37861476394268118,-0.45937919523953102,-0.45852032465454479,-1.7690781339776338,-1.7438347899454416,-1.8015863055236385,0.84988874687543947,1.8638879653687228,0.25088023109694735,-0.264158590839007,0.20016098754201853,-0.12860676124755321,2.3026998896808846,0.0094828175997362079,-0.19675910313309866,-1.2347232779705362,1.0162344100093805,0.82346830075889266,-0.61676301857431015,-1.1483997038933476,0.58810708869493977,-0.47361702491975954,1.017615044387139,0.38727901974682999,-0.54070065264957057,-0.27923485205194948,-0.70538429636499989,-0.11853378928038039,0.64180833857180686,-1.1446989292612917,1.2232445515399222,-0.55144782621960586,-0.24577357898632599,1.0160920944471281,-0.21079240441348385,-0.063999089768222051,0.61904410303131241,0.67194911292491122,1.1405569613405677,-0.12627454670501514,-0.23173274115069786,-1.704726126263463,-0.4894091636682309,0.2397863980479624,1.9825959044245987,-1.6531213527928756,1.9009027416909068,-1.7471944738486405,1.7729514320942361,0.30822996789416579,-0.93660173994632845,0.51968896783691598,0.77353131259160912,1.4651822635350098,-1.3863161876414976,0.17504924008359257,0.060381895995369535,-1.257157860119994,0.30244443628127238,-0.25879216941335009,-2.1637750134825695,-0.72425248802191511,-0.23418992867302235,0.078424912356378801,0.038762067638198026,-1.9762179480940869,0.24256394654393063,-1.4320676496307458,-0.75563314242504021,1.3867625782384569,0.58829409091915674,-1.7443601082355475,1.3876900288415595,-0.14289740424948952,0.24595713604489999,0.83327465414123392,0.39308450753692531,1.0718292215451715,-1.066840194324894,1.1047981664714865,1.9303989511684101,1.1150944671714984,0.50228533724172442,-0.30087564896962415,-0.57730715255315412,0.0091610514987011896,0.022411459417908605,-0.59495476384604951,-0.90175421283711954,-0.05661110500949483,-1.3606868909126779,0.81169543267320043,-0.51503454586605579,0.9251503149177438,0.73765913350396095,-1.3995260310326725,-1.2805956041536195,0.75004624857576052,1.9623271610877904,0.89076547998225564,1.2180694076459797,-0.6576917822358217,0.41384182744763404,0.70806609586934988,0.049861557583812367,-0.32302494496178652,-0.51199909480919814,-0.46130202670825282,0.074955092451623614,-1.0190013003216789,-2.1668678148013392,-0.15694332539530723,0.52005700266861155,0.62088552506143646,0.23207739243201489,-2.6130552033032353,-1.1226947338791704,-1.2971690485428669,-0.50671186254738865,-0.43424483123917745,-1.8616034613379937,1.5421241337094638,1.0485001904809526,-0.64172714448654933,-0.90201546993831516,-0.58719158211683609,-0.20638044043727419,-0.77187786334978514,-0.63025439548017637,-0.62551922846462471,-0.91657328381922931,-0.040019963576398553,1.2179118383070531,0.0038887759581708154,1.4865594252917642,-0.9633626306606915,-0.93759548279773375,1.5018746527979829,2.0624401477407415,0.41998791648548933,-0.33000842702010796,0.15162166051549014,-1.0702942600331913,-0.6932271727749838,-2.0617586894968873,0.35658037564051576,-0.68670690240252663,-0.29443856609361463,-1.3576606325934988,0.19460757752334248,-0.40550332265139816,-0.19741088133603465,-0.060971090003824072,0.78742301819683425,0.35131676622555436,-0.11392628639683362,-0.49589067388988056,-0.83829481786837479,-0.28507676462336584,-0.46844001503852861,-0.18101171827923687,-0.3048309059718583,1.3971586658545341,-0.24422250570346452,-1.5117503280692881,-1.0270184454663907,0.54463457993700226,0.37442213324302137,0.12239808899189464,0.028786188754919485,-0.023097449023516875,-0.079021071064231244,-1.3166825601261076,0.09892744085867218,0.86976011603444447,1.5471890282887504,0.7754325317249755,-0.49199627224798081,0.3600791122237087,-0.94562865954000175,0.51970144550641439,0.40226336705890647,0.70033940959528262,0.46782635859037147,-0.29983851029719449,0.38833086785442178,-1.2462597171021719,-0.33503745107804606,-1.7628796920488865,-0.29825233902164477,-0.65738538382196288,2.1818540262057575,-0.28589048041924614,-1.3155299144708041,1.0178308519886072,0.40617569112691471,0.23683808706092688,-1.4440195349921487,-0.41020897713552107,0.73692627106573483,-0.029989511466699224,1.1699457903494941,1.9858495817212858,0.040617628352465615,-1.2101958273932771,-0.10738004438448868,1.3869647889645873,-1.3085049806281162,-1.8202832383301366,0.99250704554432778,-0.83282640179131084,-0.38886485779773711,-0.68390372743547023,-0.36245160886375904,-0.2104143740319179,-0.84056659259035793,-1.6110088772581503,0.85512975217618115,-0.0047272351720210925,-0.68884133179202722,0.17704295244512178,-0.25657570789262063,0.90578392546221398,0.93996784342669215,0.1696838750818144,0.78946722121295498,1.7094661787657779,0.24032491124293501,-2.9262789055455434,-0.26594753770762014,-2.4032385456172554,-0.094261749250778251,0.68745413867432092,0.04983998763525644,-0.14767916767444653,-0.56661207882506026,0.90931579352190117,-0.019923538325063533,1.201367546841035,-0.082608547347734096,0.24605015560082155,0.28177674069980507,-0.58217534167000784,-0.28591786533776004,-0.15451407984660112,-0.0076470456345558825,0.1398493988732476,0.18786522100991959,-0.42093229174430608,-0.046759846481481251,0.060296087213608587,-1.206541442544119,1.4593075988707418,0.28552262044804316,2.0847885380601521,0.0025217078129683873,0.26982179523018618,0.085861685888460076,0.78727180549839781,0.30012228763018634,-0.51147910247947237,1.0816015414671409,0.73285401171856723,-1.3168236429049673,-0.8156292545207211,-0.15846359165723073,-0.77040258226132718,-0.41279043150260336,-1.5841347563668984,0.3078928658515605,-0.092652477845000941,0.3432714943257833,1.4436044030582829,-1.7490712019261323,0.60302604560147288,-0.37582492829974695,-0.32332145044325816,-0.5872248470803797,0.82599055107092834,-0.66525572508442099,-1.1125538473861885,-0.051494837826295048,0.35676220394944452,-1.8797952459025677,0.043124999744619676,-0.28669318151512624,-0.20810798644696973,-0.5490444396564953,0.38150047058218933,-0.39012172659817224,0.017066112424893663,0.404018301884359,0.26296013072006452,-0.10353761055240797,-0.5749886119795663,1.0411263594653493,0.28520033894497543,-1.4770724701034426,0.61172777142866297,-0.86733335332513983,-0.63793883920315897,-0.330597235026313,0.28592758138091434,-0.25726016101807819,1.0034635921858301,-0.18892174340458676,0.4994519060743039,0.41206082006653177,1.3714407000387641,1.9544062368662887,0.43980298655514777,-1.0370369401033863,-0.081350631490588604,0.60217919564163092,-0.85318649817296199,0.0086235544769316021,0.24046571735297967,-0.033800479633778538,-0.012622451297804696,0.9797070340367946,-0.81177760083114658,2.4418911798924832,0.044822280386094329,-0.051875560891747642,1.5091248681880618,-0.4191618919308589,-0.69597649598811961,0.70060906991661076,0.23600691959595413,0.45879002178503669,-0.28515967785605029,-0.099309777304814661,-0.5446163824781507,-1.6763107071200429,1.3852151657346385,-1.4345912867628325,0.18777929088226092,0.85450761639887041,1.2272188094400043,0.81139890955106941,-1.6644541496109009,1.0641648062505804,-0.50751988795378078,0.46778790382917251,1.0025792401616938,-0.13337405589885634,0.34630360591304538,1.4894300286429052,-0.13391271803582841,0.49088643871170429,1.4415325544420001,0.54643165470987931,-1.1922081312708819,-0.91367846707918821,-0.10953573619919001,-0.23069303513337205,0.87962548904500393,-0.59073973538898339,1.3991709683236482,0.87581783122421486,0.10330995265096572,0.99165511911397641,-1.9967612486543844,1.856118669907495,0.4197264624908093,0.87688897597821913,0.32719642012751665,-0.67155088359386483,2.0825278373539238,0.25084681646742485,0.41295475404417947,1.0196779011287502,0.23978140702314912,1.2070741144444086,-0.47820851445029056,-1.5497808562826185,-0.47584931690651594,0.18253437154125615,0.62486839648038883,-0.65686824101005559,-0.50172482121076734,-1.1197667795940585,-1.6592311147449637,-1.3748565134982131,1.3609323814525993,0.91176784363495444,0.47584396984015787,0.76036695297219303,-1.0243648979670241,0.82205123042506545,0.23393916601046752,-0.51840968192480574,-0.77009100843396328,-0.1517428635566658,0.67782886344171556,-1.2761559543005681,1.2595150083049262,-0.72846575467528274,-1.2671384333130644,0.17570695136625536,1.4815854332219229,0.33137734614446424,1.838545529306584,-1.2119259584978279,-0.85029275823650086,-1.3074794170612623,2.5015605638894032,-1.8973879099012776,0.086561437695625562,1.444761620409077,1.3131783799489023,-0.17170714440512563,-0.48363851661889434,-0.35069544773462319,-0.61501266561551304,-0.0090844163318826443,-0.092459741316518532,1.200391749826943,-0.24260834664833522,0.16147679814756485,-0.49286819715815111,1.7337262465038237,0.10838864130034681,0.19840582111594809,-0.35108706739972945,0.65173972413638748,-2.060512139870339,0.88833819295318106,-1.222000201303693,1.4514688900003403,-0.11114459193082683,0.81485090578000741,2.2929933368786606,-0.023791707112667579,-2.2576240633224014,-0.74498023997651397,0.057865225945289804,-1.1372762127319938,-0.3856445369489081,1.7531561756816152,-0.4825750233207593,-0.03209420782716043,-1.0442364334399752,-0.46031631684054392,0.81939450712833295,-0.70770967281222641,0.3931788093018122,-0.15060016564925827,0.73346214705417734,1.3265154590319483,-0.31499401480801564,-1.9003142452020105,-1.1739751560792346,-1.2746036288821694,-0.56990540931229083,1.4737042924350099,-0.013146387674912585,0.36662202718340442,-0.55273197170105837,-1.5509181437992117,0.35494228684615892,-0.55997529321922634,-0.22457153643298697,-2.0969943172759584,-0.57522473424049347,0.081451161294899932,-0.31792186550162982,1.264481861803608,0.068525406998443103,0.35132100354917589,1.5479127010503129,1.3092363138185821,0.72197793589975134,0.30477224390654034,-0.37379667203222455,-0.33415613581696252,-0.55487792419674353,-0.072717752308788408,1.1077345171222581,-0.74756072983739386,0.64429818011190232,0.14935518116809277,1.152534230045642,-0.828709209758273,-1.0487042401810631,-2.4792658302065207,-1.843525814557275,0.37423379342497615,-1.2486265464859296,-0.65194653254614077,-0.0805814156924579,-1.2102905846252654,-0.87653316605960396,0.34704409189957386,0.75925251847956809,0.76798662581302513,0.84271257624464058,0.3061494415176072,0.32643885053827215,0.21613779736731656,-1.3128318985551428,-0.28986287227878771,-0.34063769269500482,0.26941124526312565,-0.73443726784705532,-0.90153255441344682,1.0664418481712894,0.46073240564195345,-0.54261141374884458,-1.6880247777203583,0.24632187677270845,1.0120847433732305,-1.5339745241148117,0.029774894130656208,1.6787926996036684,0.2118783785010547,-1.9556334345889061,-3.7434153898737237,-1.2584758390843065,-0.80215063697983646,-0.76544755962738387,-0.55241041335418739,-1.3592594061889678,-0.29440005783867751,0.18114068400980748,-1.4435362279145518,-1.2901489781485571,-0.16851247155155685,1.3338159192974715,-1.8664666147435411,-0.4610683621445047,-0.45044771263034145,-0.76873796406259542,-0.42164962052613181,0.061567060994322298,-0.68915638827295644,0.75836735486559537,-1.0937117731709121,-0.40124092026333369,1.4859824211749872,-1.3553743228498767,-0.14098822602046585,-0.77286630819171487,-0.97034593115251466,0.64879198085321999,-0.80671382273436421,0.55375117476070612,0.043709989108550694,0.46311427495627927,-0.04510270325142067,-0.70683030692747206,1.4071623378001636,0.531231341560226,1.5835352350087712,1.5006844382846571,-0.17111223804018705,1.3201030336885837,-1.1736702320892773,2.5595259815632847,-0.46735786939203783,-1.0986918211264207,1.8590394155769949,-2.6818104670215881,-0.44157774989209159,0.54354173513304049,-1.270634188443033,0.48582225902056309,-0.088572201636224215,0.066590657120627367,-1.8198987390395003,-0.52948258865146625,0.29613277101133934,-0.4351710298396903,0.058990669441537635,-0.0089295860236285381,0.14123609201499024,-0.28170514246561024,0.26434283230496841,1.0648235517813924,-0.1868289236724488,0.67556641881838209,0.98267099357188503,-0.094028326518730387,-0.18396184590990747,-0.54825953472456812,-0.51939142444610609,1.4981783313193258,1.4005712156645429,-0.092971546099238647,-0.66140562099463407,0.35371131507721049,0.094802197825003112,0.78376143114025898,-0.42119446569760005,0.70024236125232808,-0.75699113054217948,-0.19335882687581968,0.9013544970093379,0.10420976500885928,1.4793660361553991,0.35142772494292285,0.01601566755280398,-0.03098831333199813,-0.027519061016689193,-0.34148804703846786,-1.6601192694474294,-0.17516457416786629,2.1223438388579172,0.17886818781851604,1.4047265409396088,-0.97274199958259955,0.48365322026307606,1.197508607440108,0.31681379967091605,1.1765601751891128,0.75480400778042522,-0.44693178383745374,-0.17489743687382464,1.0313965291462355,-0.38617241661668977,0.061268245444110227,-0.46507011221744926,0.99372312247482897,0.76323772980107751,-0.54028359307994311,0.86416930292062266,1.2448564640843249,-0.18462259644894702,-0.56667934235530171,0.012898135648277034,0.24506567820643094,0.2188805324614588,0.38323197397904524,0.023789553890744854,1.1922499509851752,1.3896730021076937,-0.15849299477896767,0.36342527121772922,2.2085589555339311,-0.50983576028668243,-1.1562144933146672,0.12100461025246781,-0.81417220952509095,1.5736591413021017,-0.042984814755882131,0.56540667950566781,1.5804711979728436,0.0057394019399658186,1.2844840745620032,-0.80155625144108156,-1.4025382734487295,0.073480227560245387,-0.19381282646890205,0.8353127150962657,-0.13000928932108366,0.41276589373278655,-1.4769051827579205,-0.39150844368635773,1.1061982004994075,-1.3625234668393917,1.9028042232579712,-0.94249754078353853,-0.52424494136587596,0.55703292885111266,-0.87560567876075923,1.4329057448186104,0.66811249100211156,0.68235182623046464,-0.2374033178353433,-1.0407459896307929,1.0314163412900603,-0.090626306025675799,-0.19106579592871603,1.227469921383801,0.27440184437030812,-0.45940123147201445,-0.37114325723088337,0.20267228504024729,0.54146221746438861,-0.8425771156563574,-0.38168025619773249,-1.0846009323643109,0.056820553419572775,-0.86173895178615978,1.0230183757261517,-2.5251796129397661,-0.57563945449515719,-2.7440736668117602,1.1207705534249877,-0.52863734087257486,-0.1504562018584894,0.22398095523022984,-1.536452677655052,-1.1581263108508122,0.57043100484962528,-0.24360592245690882,-1.6262751586897255,0.61792614641960331,2.1091408000092198,0.063538667322711087,0.088172884074655136,0.93656459323335373,2.059944029669007,0.99873507508109349,-0.31636295887012628,0.061363200420788987,-0.53660812555356485,1.3562296745193045,-0.092502307857687704,-0.50075968615198463,-0.58598315532983536,0.65798885631601522,-1.2690918804473992,-1.4454595983854128,0.015204951014249263,-1.2757198493718036,-0.77619374742720093,0.026911974471064776,-1.3758637726354919,-0.94899710888761901,1.5126178567703605,-0.63531606183893352,1.2788924914915287,2.865189088296566,-0.35837687195715395,0.13982096413543293,-0.41321149359304887,-0.75809120170674726,-0.39435616097671172,-1.5332912687107352,1.9618639884211106,-1.0654892180558899,-0.77436029693763331,-0.75409431058459619,-0.3614847206017277,-0.064566741801384761,-0.54952084146594593,0.24823840721228707,0.92585650884131343,1.293802929534499,1.2460385066311668,1.8554312740243271,-0.53129459492885511,0.50598349755608918,0.99568760567875358,0.60459799855581975,-0.80821803973003825,2.6483955574125257,-0.036102752459728271,0.7108487400466319,-0.61251714983979311,1.1271620561240019,1.0158484461388773,0.76361214478645012,1.3213170891798114,-0.90149815249972121,-1.0105114596202465,-0.78879635972554363,-0.44738397625366139,-2.5552575147854371,0.69817062973993216,0.74436113854338837,0.78301590254564157,0.49017221361767727,1.1841400958294961,0.80116091183534721,1.5412178577160889,1.4239869870863973,1.4283460838738542,1.9181188453942406,2.2862989209199065,0.67649955300122688,-0.37057976322185227,0.21299445732212871,0.37683458730157549,-0.54885786259829739,0.36647618283372946,0.91839094289621315,0.47451752432779787,2.0129395704471711,-0.60954237677256418,0.034654191809239759,-0.83995066164423571,-0.67388665924902802,-1.0620278632165894,-0.28579880949707831,-1.2522958285496077,0.32923245897697329,-0.59917694038995584,0.8290782562271175,-0.0166742510440108,-0.25254935728410938,0.049055841731034909,-0.40324053968781054,-0.86434676100146857,-2.3292759260200504,-0.49013645520297722,0.26544450553312571,1.2521626616296102,0.67355161091850368,-0.41540650783569089,-0.64393861193327717,0.71101290410530649,-0.62809207934314426,0.52003511251038792,-1.3263712702339741,-0.054434382576146537,-0.068329404301786759,-0.22622373764509998,-1.1490364054195019,0.19178323256060095,0.047135790945801871,-1.2958607709938423,-0.48633802716552066,-1.0899853277610703,1.9771782682727672,-1.8158446679785771,-1.4042771278974788,0.45795700201328599,0.81066134863111838,-0.64462798258434362,-1.1364761545978483,-0.87483635130718218,-0.82523049738639409,0.15674062501451072,0.068730431187347382,-2.4861629888974965,-0.63209153460348078,0.5378374231189661,0.86882021008882759,1.1221241145933472,0.33432885768299914,1.0861228071620885,0.17133209229049268,1.0616511083908087,0.63179557676548004,1.1926839346239888,0.008300492782697854,-0.62333620506355081,-0.069674142114681079,0.33134620810988619,-0.88336500557696185,0.69214878181368344,-1.3002901373651869,1.0315943835692452,-1.1793266699528724,-1.3793594885741896,-0.4686152409684311,1.1780332085193912,0.60311973791633944,0.608207742993914,-0.45331774471959274,1.2733238635118918,0.68602946090103323,-1.6289434938515037,-0.82955740817596557,-0.38356856745564949,1.0164962133591615,0.03198961280002071,1.0953579513768088,-0.75793237625798926,1.2508383345668317,-1.0979345715661148,-1.0549163470272942,-0.17163847968793181,-0.70652030543979694,0.57061354969474665,0.92873380983106124,0.031954660193211214,-0.95920054924545017,-0.049278424281971205,-0.1471400919578148,-1.2873611985730335,-1.3790728520600644,2.375142468265151,0.61529327931621935,-0.3121298853481938,0.64847096918443459,0.76342873712530235,-1.3939136339288507,0.13582381156825823,-1.6424004321493495,0.41128042728612529,-0.40306419859683235,-1.3979237707056209,-0.61225728433323967,0.53182863373399925,2.1992365453870768,0.0051278860273943992,2.5746174662907895,1.3473479063051899,0.41230811942592788,0.81990541631686764,-1.7139028719240197,-0.64351046608976747,-1.6122415472923788,0.50357093730084401,-0.17738896650740113,0.54449961434793714,-1.976065198124648,0.97689328437061096,0.91588266872617585,-0.73918118480436801,-0.8634677844844334,-0.69512880237316099,1.3770467919341005,0.16073295678416297,0.01677587900140003,1.7090846920573473,0.94462498937248762,-1.8894107764172878,-0.60028396824220287,0.25337005224776665,-1.0691725208409899,-0.1379926821968227,0.67399608443911008,1.0490614232636317,0.92697487435037296,-0.33066814813698697,1.168965958737443,-1.4086140326130825,-0.57090700946205131,-2.8104110023082476,0.26388913518059698,-0.3260406810567823,-1.7238493783659579,0.64196100098101161,1.5123952999325108,0.81851771011331098,0.99670462270665683,-0.90625652846756077,0.94850319583590037,-0.65433501813900408,-0.99349316277651223,-0.98373444207722771,-0.12608321618020041,-0.047455984855162545,0.12398820294205304,-1.3307103171579291,1.327601105278319,-0.87459879451867961,-0.43756275856297833,0.41126238761786577,-0.094737914060315953,1.1774469071300038,-1.2710717427511513,1.6736258139845299,0.9183633949579707,0.74473673779773408,-1.4792879845486946,0.90848560852796123,0.65870051801824425,-1.0603295515571305,-0.31435858220233953,0.20860948850080432,0.025454933682274992,-1.0001012777546057,0.29240518611109634,-0.67077534443605058,-1.1617604427410524,-0.082449717036132603,0.50908716630682149,0.82535483048218083,-1.049582440195743,0.63497763824009601,-1.1599435689243147,1.5458391658628068,-1.8328822205085726,0.25056429842086625,-0.54388972629069432,0.66434989085068352,0.010783488373461625,-1.1116979035390813,-0.49266803272406684,0.81022433538192296,0.32016299983493568,0.70858766292708331,0.025086162401780573,0.89043443140713019,-0.82929950664387175,-1.9938590080080412,2.1662075004012906,1.2599725557966897,0.83024546025975854,1.8173588841699675,2.1267921923297131,1.306916037520276,1.1179419318004848,0.19419090617733675,0.60594067807037022,2.2353839010624039,1.9573789425685144,1.6156527787802231,1.6707848093939732,0.235042236664775,-1.0400534754324069,-0.99434290746716636,0.81964303605263444,2.1783188411944128,-0.63941163490137953,0.022531716727934494,-1.1640418005997395,1.9283189216294296,0.46997718038951181,0.49193272380614456,0.16264881030240183,-0.058569674310188398,0.04786186467861718,0.14259501219668411,-0.091793452218014479,0.10942992875158962,-1.6646314140141609,-1.3785618390530536,0.94821825255805536,-0.064488486326164371,1.1893649699868367,1.3956849998902621,-0.68274112242654694,-1.0403816846700735,0.4700104881633827,-0.21319367207719483,1.7985716009297108,0.77425725919256838,0.020576414188368093,1.4817899021957937,1.3660290210173338,-0.5421454883930229,0.38522151103246832,-1.6566271919094631,-0.10414107011717014,0.70417974635961456,0.2135497754145684,-0.025417873542017771,1.1496238266305734,-0.058117147821464842,0.15822002480940367,-0.04714126888671049,0.44388454145577838,-0.27500243738665903,-0.90708637344782628
0.66338779384338098,-0.045518480733545426,-0.089153062430920624,-0.70168477409032459,0.6483477325144662,-0.45986717875742994,0.37672630619103226,0.12222970734675943,-0.92645812592145538,0.38016493633368009,-0.21333019944095069,0.088747687531458758,0.59264505781816912,-0.18895729802653374,0.29611935533529765,0.97648433066774121,-1.9438249612224929,0.04627285348907681,0.58838280726571068,-2.153492908412419,-1.3916303806078008,1.4730673240300955,-0.12590991726640144,0.99773775982685997,-1.0793585358961835,0.45101490628102592,0.57095768164460226,-1.3014296456751779,-0.051730058499976472,0.28267904589103809,0.17028281093460587,-0.36379166285357128,1.9392301544957484,0.74146377772768368,-0.7473714078650433,-1.2313940043568188,-2.8986595248090903,0.58482479076121419,-0.80000722510487632,0.95096673653108499,-0.00022685125034472948,1.3100674753959838,0.86769735140368187,-0.3561338669712194,0.012574962447964945,0.85254247250366078,0.90152389377668152,-2.0011956586672244,-2.3138222765033456,0.14698702116976853,-0.0034850913890875131,-1.2854360313816582,-0.22385278589344049,-1.8443750223657533,-0.92031907295242499,0.10693293856133858,-0.69791923789269317,1.3975966171902725,0.08608843775857436,0.70505417681254634,-0.78165185702479645,-0.43255267089653721,-0.64396348226515199,-0.61286232938401075,-2.6946868978652452,-1.07327390972912,0.067458403999214933,2.0170984616445766,0.42548904452644937,-1.1268672768421115,0.24901577774408878,0.44462464281626918,-0.65967394429957815,-0.19532746508351412,0.46137495960590585,1.469921452744883,0.21245918793076718,0.95991649870330031,-0.89710911996952258,-0.18136102181772401,0.69209956080086454,0.17846510405500732,-1.3639703320113516,-1.1019799136694661,-0.78495849202599377,0.63981224554869709,-0.42547312144605759,1.1615930565971215,0.67734886760529733,-0.48591221647365251,2.4497649743652534,0.44688920830026124,-2.1173198234528088,2.1520390949936141,0.71116079918727193,0.19327815925268246,0.81609546138016109,0.41505279065103856,0.9471020022694373,0.064408425868754657,0.38484012169710474,-0.92238982778050538,0.19832660829782772,-0.377001970581686,-1.611373971110744,0.090788553612191292,1.9436910564223775,0.031667106766299712,0.53441496192454441,-1.298012771830855,1.9382679300282597,-1.3861542239268325,-0.22539108948381642,-0.49678937375043303,-1.639478608830707,-0.33783991231406679,1.5328209023034114,0.071392645523334464,-0.45824009327495685,0.79514335185193663,1.0976079823248515,0.29211673410911437,1.1611599598427542,-1.3426432914885904,0.10939618326982485,-1.3642143221817777,0.65053207657097412,-1.5887413149952803,0.52663156647378684,0.43737463744396649,1.3229289490428107,-0.25127331130810759,2.2010122553334357,-1.4997750698575243,0.34035713049604133,-0.54727703653822168,1.4666407918528008,0.24511324469297402,-0.42737178793402542,0.24699077602372685,2.3929790438244027,-1.0414795337134322,0.81596275068405866,0.080966931772305559,-0.50401449623584049,0.65170787281716502,-0.3973039146889803,-0.99591168790651008,-1.4688457430892463,1.1001002580215993,-0.24679035392324447,0.32404385897022853,-1.7022607372375527,-0.13103618266880235,0.93140874227910586,0.51000638802621301,-2.0482957247559015,0.58184111759223522,-1.001666273955842,0.58716968377510348,1.5859700931801395,0.79467797749958458,-1.8735305717144646,-0.16172416284543514,0.75880615172200749,-1.9516282960503093,-0.17926839971358291,-0.55028326447087783,-0.68807092496237987,-1.2036596567506839,-0.30680832662488744,0.62526988207396095,1.1067331672224019,-0.38148218984302462,-0.099255158671703342,1.2376895581129848,-3.0427759645079013,-1.2534429226361254,0.17166443255060607,0.79439434263470443,0.51410921174171942,-0.93399195006101021,0.22694051277539531,0.90423182089129039,0.76952462319824599,0.42599715775864366,0.48684612682132306,0.28775314449224304,0.2237087306776899,0.55030118227846769,-0.56829817226676171,0.66171171081909208,-0.44537397460549599,-0.75195364534634146,-0.089216791793005609,1.191164078668298,0.41743330440318938,-0.76887210001181605,1.0678454917863773,-0.060961583462421941,-0.37043751582781043,-0.15541620893435576,2.4442010229039464,0.026343107707294654,-0.13978831977818751,-0.10367440813775992,0.9153962134132444,0.45518122793471388,-1.8373016142009415,0.60808167571945038,-0.44505157536468182,-2.9534444344977944,-1.5608040665505094,-0.047550737793367659,0.53464267793047326,0.78222147205761361,1.5189593299909099,2.0897581697550245,1.4265901938452761,0.41472190765331252,-0.76606245612277313,0.18537076651514769,0.83221780039521043,-1.2232448377376806,3.1390095724662666,1.3935828778416803,0.50262796486313599,-1.9970896363297501,-1.0130365743983007,0.50474463065590103,-2.1764361049644161,-1.2640428230871599,-1.0131433416223568,-1.4379426236622666,0.83409526591116456,0.65726196267538262,0.04387489932249191,0.51333894201075736,0.31591245232498388,2.1420571686887628,-0.98496252323185141,-1.5403600884641044,-0.30823719722995213,2.0562186747299322,1.3559119699878648,-1.8562197131348182,0.47177745140731098,-0.82335338622259369,0.089959384661449329,-0.45237240557863612,0.47944815948061159,0.98095888363123196,0.099525276330185986,2.5696424406727076,-0.083153750772485643,-0.71335781067214665,2.136398028535003,-0.34144726787515617,-1.0740324794247007,1.7346557119294403,0.063000258981168525,-0.1809095556429608,-2.0962752509839593,2.0924145673600432,0.47185818712225075,-0.68756525647379152,-0.65999650554295564,0.11979011942559215,-0.0062467234494186551,-1.1857320689708331,-1.964069075080678,-0.053866491332183401,-0.40355206775192581,-1.2029791707551691,-0.8387933785674565,-0.8530430305319725,1.2997169115676772,0.66069543354986449,-1.6643861512797247,-0.12900546246706174,1.9947388329768458,0.44313571998501083,0.76277880788330787,-0.71541836078335286,-0.23926176933421869,0.46443612407652823,1.3949977619958598,1.6982136281401434,-0.44689251921824213,-0.1687790062079389,-0.40396011194360737,-1.2797248201329114,0.61666044735375092,-0.9139041203878645,0.27474908671642284,-1.3874815583231959,-0.32003023221762827,1.3131373516966254,-1.5811056462836088,-0.48086724370590767,0.07251776214428686,0.60378633502436863,-0.2584465726753491,-0.89548009390230454,-0.41227036714803178,0.7105215235398632,-1.4556870679054283,-0.067435381124294855,0.2526058131089905,-1.1178600131662912,-0.36410770051911456,0.37837858981485917,0.28344721869037293,-1.242365625140212,0.93465123805887396,-0.43974794303333692,-0.0030983570202273878,2.1015898485193136,-0.58550506844660644,2.1173770121474504,0.42754975305700554,-0.95865000045148652,0.67773768362485987,-2.0564799836303789,-1.2128286887143442,0.12977405513656218,0.85192903829709432,-1.9940557071610445,-1.142308017498725,1.1509420201434697,-0.54512607784092615,1.262306440399523,0.36822156717725746,0.79112698452741936,0.066190279412921868,-0.71295501499186986,0.27734442609610155,0.80821848810798103,0.60791482845985145,1.5889542448012461,1.2018032347118059,0.96210328717314086,-0.50757682946646066,0.5949268247073749,0.45325372449495144,-0.079971187867585489,0.44250988134232883,1.2423913766289212,1.4638560861511933,-0.067583610207636619,-0.87497902075600031,0.90959066463874294,-0.75509340424985261,-0.62926450086675645,0.50613808083570977,-0.65049753803137411,0.7733336009112961,-0.52465921167785834,-0.53411781454984075,-0.81481203278203551,0.036101514023311139,-1.5208243978951221,0.01043863234830281,0.44948439822854053,-1.2719826604727684,-1.5999308864440884,0.52638682482123877,1.8098874127685809,1.3649544315752764,-0.5091511735684604,-0.37609072880077771,-1.2962492580461533,-0.58346100429611103,0.30075855355026831,0.062898023536055808,-0.22449518407688987,1.2252846991931434,-1.3168323361222356,0.51260815747972188,0.24278417193766533,0.51965183731991682,-0.26436135783899506,1.6489266024402978,-1.2819669843058179,-0.17923628777219497,-0.60536863662577056,1.1466457029435995,-1.0993564395150999,-1.2678712036075639,0.1701951996991784,0.18057230056501744,-1.081363902649779,1.3020749563485481,0.55369902088991441,-0.79228920828130411,-0.72669724084356924,-0.40252501519761608,1.7592151837007401,2.2547485631530328,0.83806836005941132,-0.59715323085319949,1.9590341734982071,-1.5222974808743279,-0.25836378289722339,-2.2077246693908967,0.40864196812425874,1.5710415899629919,-1.0093977660376545,-0.14676176515884284,0.65338678884704482,1.2362917562838529,0.36602086098372522,-0.84738715636153628,-2.0444868671405625,0.66342883503102479,-0.70407311669854611,0.10312426605818552,1.6021091945800316,-0.74743246168169553,0.83190428064968358,2.225765765116384,1.4239139884586303,0.77747667370809581,-0.23219333958535954,1.0058276013717735,-1.439278141348298,-0.17897258432524007,0.02378634493467504,1.0409306597452024,-1.2223546516247883,0.42825202887896424,-1.2739886501308062,0.44894079768337947,-0.12568794350022341,0.38985675432135214,-0.3485298586304979,-2.2554413113897849,-0.14280610541153438,-0.50947197390857701,1.1755242120798888,0.27034840999904397,-0.21599287898783318,0.60837431811444131,1.46153649462896,-0.92478009164160557,0.31335656582441979,0.099817305615844218,-2.0776417648937331,-0.49894947355082553,0.21357572301111941,-1.8296045635250324,-1.7506506939024451,0.91563408207780039,-0.45800257315272841,2.0121333552822183,0.24054953433828258,-0.79012049388171657,-0.94936816675421132,1.0003737391812417,-0.10983027966927311,0.72089517698737282,-0.40468988726237531,-0.22071921439291575,-0.64628991157178006,1.5189348458525815,1.2927441502240102,0.89268218308470237,0.45225539869833048,1.9261016742877364,-0.78097284545833467,1.4880408293659602,-0.23639861442916904,0.27759284492227132,-0.35735616967772427,-1.416559700863629,-0.17639926390624736,0.73614488038817483,0.78400121792110389,0.35111399311201563,-0.30873134118908102,0.79951628455021151,0.17797962944864887,-2.8443697018859746,1.2228783783270663,-0.44810126762541841,-1.1966455863948844,1.0011767784726586,-0.3790803663577067,-0.27200575970767749,2.2096259217293466,0.96949457773413139,1.1749745836309691,-0.77113348727605824,-0.52383371884039676,1.174391666020993,-0.16299188835372655,-1.0083522958637168,0.78302070915485966,0.96376554037219542,0.13905601617411176,1.3288897357576608,1.8081754259298082,-1.7113986597153361,-0.54614142836271051,0.38810171791700937,0.44971860606761066,1.2731452571204804,0.31701354369270524,-0.10089807277630976,1.3430704070467119,-0.19434006090718117,-0.0187338412602998,0.94686996032053805,-0.19481027568438791,-1.3353106562777828,0.44075097078524478,-0.25787185922109757,0.6037040888958275,0.36914159493125209,-0.54066593928512574,1.9730634249158885,1.5939600857799094,-1.0258906279631956,-0.3365683190024924,-0.57646644893842169,-0.55724308460640293,-1.1467534270324193,-0.33198575073907172,-0.75664557893027851,-0.3111107429820143,-1.0699246133279501,0.17593432094009509,1.7584130647392444,-1.2516765988785932,0.99761985868520653,-0.091889941190724744,-0.59076743125145248,-1.7247376148274134,-2.1659661441265401,0.011335839187097149,-0.51531535866814093,0.58065242462929367,0.54444837288408998,-1.7439380579440193,1.8042509966265794,0.036747458806567983,-0.20364967187580163,0.28476967161643613,0.094635869316461826,-0.842736113324002,1.6018210016076961,0.57625388994103544,0.24492116766641175,0.12693008028788752,-0.98505934404009921,0.10470920964020745,-1.8766337169486946,-0.95079499019491154,1.6497151263840237,-0.53992358824251829,0.12323820457595511,-0.61128929166240331,0.01971236573896774,1.133389112376739,-0.51810716442125093,0.74873424711927261,-0.012025299002918077,0.77346404234587918,-1.3812030059740414,-0.36194485991236613,-0.82960558327511347,0.078552126799019545,1.1171653715357892,-0.76350958741136832,0.80575963317751809,-1.2766859130796311,-0.85181721964823676,-0.51197657841647348,1.2357654364655262,0.77820441957699382,2.2192569862731437,-0.19333186501706442,-0.54528740262296316,-0.36397321075012096,0.31722291208636927,-0.025687340261295686,1.1868444304553845,1.1391233555463474,-0.84536074067747058,1.5166638599782853,-0.56788510042598817,0.66145066985002265,-0.33461611288345683,1.2151094324206695,-0.056872549328066069,-0.94216865274239325,0.57555940068815592,0.21243773315411693,-0.51323888118238503,0.074065867948073377,1.0267629246997294,1.3367224771051505,0.83966212127738948,0.45980795384346679,-0.33661762555143165,1.7304564235828546,-1.2901399951055599,1.8922808751513123,-0.97617872283615159,0.1075356576956612,0.36543260209298967,-0.724422908937292,1.1264898343551808,-0.99199709513335377,-0.092713381241836576,1.508061335285436,0.33531397256197992,2.1481107789769527,-1.0321250397185762,-0.097861851805041492,0.74637244645284395,-0.71897063281808327,0.73395772350265831,0.40010131412066702,0.49380884239003792,0.75865207235880017,-0.090180072151175988,0.61306749997022869,-0.69034340379649173,-0.29739729638447765,1.1582018669221965,-0.29137371881872143,-0.32318232414001408,0.47279180160604967,1.1061119180803896,-0.32263073234688366,0.23605156957725926,0.15046019905216915,0.83239479570438546,0.33925338709482905,-0.54302908692260021,0.22247974225268435,0.11210771392546399,0.12337479478607435,-0.1670369065048232,-0.81881860746991164,-0.17197822825204365,1.9008573671941567,-0.3277688552533416,0.81357815385086163,0.10526513095063997,0.40631698095868507,0.37984435389436477,-0.057753385976067793,1.6168531691954722,-0.83325345110046134,-1.7897287729362512,0.48249706906604317,-0.20078600627752632,-0.2436455616557989,-0.43182708560100652,-0.20101149626139153,-0.094010912982562853,0.54691304255215323,-0.86303117166090149,1.2548440082832819,0.054862256697918554,-0.31237239191073096,-1.0280495796533133,0.2559382617136729,-0.11566639751361067,2.7533816700347291,-0.0050800091371060547,-0.98555878413515163,1.7659424108882993,-1.294314086420125,-1.0811185017614042,-0.34971311117557041,1.0341929505712599,1.014753050740582,1.111122210965813,0.73240772573302992,0.57357956995541803,0.44908856517316298,1.3819293569988433,-0.16633559075008153,-0.32470404637246658,-0.97009349891826802,-0.12798862624279211,-0.40439069912230324,0.70123010917842388,-1.3722806042887004,1.3602980487542602,0.35042203201907457,-0.17635272241468578,1.0726930209137138,0.41639775319340394,-0.85856060978839066,1.2553056569724741,0.60591544748315973,-0.38611240975064759,1.2659743529234462,-1.8590873906194929,1.5738202758682824,-0.75843049346144131,-1.8063937519347419,-0.37658881126587473,-1.1151122607733572,-0.26010036126756847,0.64410910316600689,-0.73484802428074114,-0.17408456512249174,-0.95120034955397914,-0.64473489807285822,1.1062633121928196,-0.38766500678521226,-0.6136526521556418,-0.82101289079232531,0.88569190536366815,0.81089375730761637,0.82743413268677357,0.27408012796875181,1.4021836341990759,1.5285353172224294,0.31333234029545615,-0.31882084932336047,0.065998711487444017,0.4771252363385482,-1.6483042569923281,0.41849853266637838,0.89230511719981953,-0.6441259330139848,-0.86227892298300146,-0.34922525355299999,-0.92027399029821833,-0.82485158081327981,-1.3384601192989078,1.3798929664265895,-1.4243010054560454,0.26204803879861499,-0.37860890447696349,-0.12500063313043164,0.097640679518789172,0.6495474714931585,-0.089316044103616626,-1.0682593122941813,0.25691482187105918,-1.0363423600497013,-0.51719224741488568,-0.29179350417614036,-2.1676491842950569,-0.27233096747162888,-1.2750044254876824,0.33546817657051597,1.2427057221894593,0.40077425082393087,-0.7149025807410111,-0.19180222043696382,0.20365528014945741,-0.84565606866661081,1.8407143253711562,0.42796204340271654,-0.95812016438959025,0.89772502802272691,0.85917545756275282,-0.78467573412424485,0.10932753462908847,-1.8342586069083984,0.80363936922479728,1.0281767735889891,2.4467571505933932,0.8828915885713744,-0.34309755749581616,-0.90672128222959059,0.6969469897370415,-0.6643261152849198,0.75012951399088768,2.2175622518118767,-0.3695230323989826,-0.1377377465316553,-0.28205021066118213,-1.7165437433393202,-0.67600126643839964,0.8360156643837392,-0.53490838511586092,1.1144370966000303,0.55531104688406252,0.21478844011261011,-0.29087771584205435,-0.83760697185559807,-0.58099732903960055,0.24420104985919527,0.77043184419133048,-0.58488845622624219,-0.33925103256639899,-0.87121334018086294,0.3219299160729806,-0.68703625226624021,0.77322944186850884,-0.55111703209660601,0.40809762496407365,0.26124416110631454,-0.83836956040512123,-1.5486212042856617,-0.17971107450827339,-0.25284195406123755,0.076093920005265353,-0.1164001278506071,-1.3504280105976978,1.9458839669085479,0.20399888329744573,2.0740143745631761,-1.6619608975331519,0.77437685205514228,0.28852378271428158,-1.2368558808611816,-0.742394025734053,0.56389467693319695,-0.35773863500032083,0.76472173391789433,-0.18968207511510224,0.9432600057462236,0.38664161610822634,-0.047554210301066276,-2.3275000301867999,1.4420911863469359,1.3510872671717216,0.52951339310868462,-0.34510991578600247,2.2941870320133932,-1.200422372422719,-0.0489777755810114,0.45833460037678281,-1.5053346100584923,-0.67621057779253557,1.427207714864779,0.53507757142574819,1.3908823884432258,-0.88800144224282707,-1.6974456779250995,0.67939354468899071,-0.37326236843422905,1.5229729196535273,-0.041610086633638806,-0.49212175420712201,-0.23995929476015251,0.19633330904974486,0.0074267862247253758,-0.84846268431433569,0.80067782256143838,-1.5265399945123892,1.1512505261868782,-0.66379454698038864,0.83490435942918995,-0.28728233408218939,0.46115707862561767,-0.44470163499675336,-0.42665887140879072,1.0649102963985215,-0.30226395802780187,-1.8141787381262786,0.44065519911878848,0.24416435809701748,-0.71270381775434344,-0.86576120201293338,-1.5545926582315273,0.97049616127338312,0.11695389974950905,-0.45287319788575947,-1.8732232165741851,0.92279801531751293,-1.4014870025882444,0.23371984087707315,1.5102321557372307,-0.62719296738615726,-0.63220945517018234,0.19280559997915256,0.26420267553605059,1.6320291538995204,-0.35554381019120262,2.7008697916883735,-1.399846755741124,-0.63610709433976065,0.54972275748012922,0.58132393960192785,1.7272124897526795,2.4922829672278932,1.1564543222875194,-0.73976014669566825,-0.15703599510585248,-0.72365201050572792,1.21119193159718,-0.34854076684124069,0.75642967179973608,0.059678664082529094,-0.12155008338391358,1.3887570031240941,1.3786604336350214,0.40532467484944651,0.24843655688686575,0.82612961445768784,0.30308304146731874,-0.6160119322681632,-0.29788585747811885,-0.85900693605018352,-0.19170082044954537,0.10963719675093132,-0.33182730647361292,-0.26831645070728483,-0.7448397366616949,0.2278237959972213,1.0592993638293302,-1.4144415094101219,-2.2094053172679153,1.5474182189071395,-0.23259376262221071,-0.0065740695384078531,-1.3492243633324417,-0.3182744413174397,0.15339785084816646,-2.3304850058636304,-0.92777560038972617,0.51769881302338727,-0.18562951485177373,1.1973844767473272,0.32278860249297298,-0.19675311955168817,0.42566758520038611,0.099674343208129998,0.0072320735460455147,1.7082650789181244,-1.2168785026818891,1.0185052401156005,-0.59659660239079459,0.32889616840083946,0.99736121098005759,-0.87450723166961764,0.8979843007514019,0.17351123010025651,1.5194302359348706,-0.78953524293827326,1.5468643968692599,1.2611328616650652,1.0031376028194348,-0.59385803267534343,0.91495394136674435,1.2065490795480989,-0.45108891258750289,-0.5952893059925205,0.53537916227725912,0.34119594311761614,0.20028874202264238,1.5422124261722261,2.0125222678224541,-0.78980174911728873,0.061564937751477755,-0.20194880276024155,0.54068809460842271,-0.33990804283841441,0.65888086731229178,-0.63980089841976417,-0.85432018193691572,0.38849515770685034,0.43675599507445673,-0.60377615762467318,2.1450814678052113,0.66875711797731541,0.47204776152266426,2.2296223186110398,-0.042397740909195444,0.21596324583798723,0.044805827000957588,0.54451805648178109,1.5431571888114441,0.042817604108186025,-0.89757996599663181,0.56191870442393921,-1.2143705699401488,0.82065707994199677,1.0242279937486845,-2.1594258365194636,0.82952532981377525,-0.95953775572274869,1.5173045579668332,0.71166140558347812,0.27966875543041753,-0.62027319201014064,0.32846454493435728,0.26692631126504901,-0.87172801436726799,0.27595513708873021,1.1497830749379991,0.27180385531360768,0.8886639533835099,-0.21087146100873858,-0.012179282374325076,0.072881472769405556,-0.38439189698650372,-0.6884792489980569,0.36452470014606442,-0.44171184009704573,1.8407808254624889,0.20395269886851655,1.4119494685352072,0.53124661651649407,0.62451162070216226,0.14850672443416066,1.0924725127262291,0.10180412411196728,0.34926644944968294,0.27431495719812549,0.72940893474017987,1.2229848106054906,0.070382807101187328,-1.3976295484634051,-0.58788405996685034,1.4388144757369328,-0.84523566520868698,0.15443487179264834,-0.020340332454098688,-0.5841036859623675,-0.30776412911643286,-0.46218680657590266,0.90057240856601983,1.3372145394048742,-0.17251075723996573,-1.1195161327828973,0.22830346246737873,-0.30707226300241908,-0.83998561950528172,-0.062556312232496469,-0.48832966461712135,-1.644376318705228,-0.32429014282596846,0.80101905183656563,-1.1580857065644332,2.0260536709204704,0.4654825965614901,2.0364877121715987,-1.1027745569507816,1.3859648266540836,-1.1291256889373331,-1.6408501654755265,0.74152798349325477,-0.024330071974624834,1.2533976287951767,-0.09353680563372567,-1.085633155382095,-1.3690743593374275,-0.21334537263528927,-0.16033470925800986,0.069884499307148587,-1.0892479057650704,-1.0164646795898222,-1.1102589815700983,-1.4335429313916708,1.4615071753675084,-0.31368504289613475,0.27294209311419504,-0.180872635786469,-1.8021360454756763,0.49132645666172109,-0.46808567606938789,-0.22923861812049287,1.0159921114984383,1.0503339280706003,0.04396134361287786,0.94288134123379308,-0.80535220359073079,1.0678524953164437,0.87263242806344998,-0.61717524819724123,0.26519087454301676,1.1180532999524597,0.41563687831622437,-0.42586149220035291,0.776291770937937,1.2700455209254811,-3.1857878183862978,1.084653229425238,-1.0515382744395181,0.45372130680566175,-1.0587641941226908,-0.62910606943279246,1.151411306251455,-0.32326027266811097,-0.76488039456929191,-0.00014780266196205943,-1.6181156636665457,0.99619067431203745,-0.26772273774933192,-0.14729804641824792,0.47891159743021344,-0.68003317246976924,-0.46869895443789683,-1.3065622538495898,-2.5772234094904864,-0.050179107128351691,0.097581153017810812,0.4617509206972723,-1.8334958796368739,-0.27863330047071028,-0.94725113527444482,-0.32050017819710125,0.074411850459724413,0.2943674446574483,-0.0008588387492761857,-1.286881839268766,-0.35158169184440202,0.23007180662803445,-2.1286999646732125,0.056103276120638729,0.83092069531454582,2.1145299929634134,-0.33355077859710269,-0.74309516433300493,1.0718774517963354,-0.47378648772253185,-0.57243066355460459,0.45848436641849621,-0.59014300967556121,-1.9828855276117356,0.9886391172769754,1.003282027012391,0.058140741327124337,-0.89825248637357158,-1.0477398139947964,2.2508186645210984,-0.92648850464445032,-0.83631146669769163,-2.6004454186777544,-0.93135239137970116,-0.079440965268202116,0.22330749674763831,0.19350382418859319,-1.8501252593298032,0.52309355440601191,0.51858127354065187,0.13759892525899181,2.3278212219893084,1.0545309761344059,0.047653779582451983,-0.83775848316159551,1.0893435103462366,-0.51805398002559577,0.76988434161032882,-0.6242898206407913,1.7156418355233725,0.18906111348481613,0.65966348955876597,0.34132075599616374,0.19520047222782114,0.48058267712137631,-0.85847470090390599,-2.2650626790520128,-0.46317525731520431,-0.71121544362797828,1.5904707750583089,1.7633748742760647,1.0138089442908784,1.8517994500633395,-0.18802613621973605,2.2311986724764945,-0.77118288031239979,2.0420447105069015,0.37117989981000354,1.5545027323093683,-0.37298499269999841,-2.436912756768979,0.49001552329705211,0.11322123986277714,-0.14839237623452975,0.56760025128802105,-0.42329474951438312,-0.1600065759412227,-0.044240007667835736,0.61423898146896438,0.32231041270081645,-1.1362340633527548,-0.63661522138787285,0.70252600793264941,-1.183543017332771,0.82900810391476054,-0.68156270855460088,1.7844365693958066,1.0322305942783143,0.053851591747605718,1.0639426251946358,-1.5830236400213797,0.1224741084832655,0.19009945630333822,1.0451647076378474,1.1898623642757706,-0.52294184247018005,0.24279186343013923,0.37106778940779461,-0.30144941167119343,1.5456909519260156,1.6874853501968357,1.777858146314591,0.20657046234071816,1.5192387457726502,1.0545712518328572,0.0051990528430544154,-1.651294010606396,-0.29645287309242141,1.5455452039066853,0.50009596741840057,-0.82907908963739996,1.1592458525870573,0.24536766092382345,0.0011880484966270339,0.55834079884384846,0.96383204434210012,-0.28120145893628784,-0.28386661699498311,0.81741507053951512,0.70277584105627133,-0.048299608513380179,2.9911131195937548,0.74894642845206638,-0.88217981819184554,-0.84822951159118787,1.0470978918614571,0.38621012672725896,0.36900426787819401,-0.17334896122988988,-1.9961798359770713,0.46215718919307569,-0.24814898174407626,0.0005141107951941909,0.015280368628295314,-0.87186117352344861,-0.62408025292755653,-0.68489982560705065,-0.54788261389193094,0.026842818640759904,0.24956198016209163,1.4843694057189949,-0.71773795091617432,-0.92274799474039604,-0.5113108203344251,0.9497856520257062,0.2437204299122836,0.39108157870857813,-2.5753610726688332,-0.73652228647637508,-0.41975644121585354,-0.068978256781746725,2.0557731729356363,-0.49341612842130028,0.54749392596958757,0.58761635664190315,-0.7605450077679925,-0.3129595785255409,-1.2624307580936185,1.263799484230824,0.057887709120593177,1.2249985209585927,-1.3825031184465315,0.45494407737526688,-1.0727222764959619,-0.68417065396721899,-0.24428849301049968,-0.48549997495188313,1.2725137258270156,-0.042687976832268382,0.80330447492513912,-0.88561092904962213,0.65523130330053925,1.3533486150301626,-0.40954822500459398,0.4656038253229185,1.7550500982756252,0.47915271769026346,-0.39063560023744998,0.1584372897657412,-1.0024191745566162,-0.62380957031082573,-0.50875680359510578,-0.53423147064042675,0.30464347327113017,-1.1447728491686238,-0.71964323323475976,1.3028558003560453,0.5743028213223651,0.99652040992916691,-0.48961907285384265,-0.43301981724905891,-1.5271351115728882,1.8167916027496052,0.44278013377810466,1.2356943976986707,-0.54613159307359938,-0.13338079414182766,-0.43484546497057802,-0.23294901827849285,0.017294118363300089,-0.5700402391134527,1.2394345526354464,0.003594582961981771,1.0945947845410342,0.72673064909908769,-1.3659421633036348,-0.88601077823339003,-1.3894070047326572,0.69616426269730058,0.33984703658065502,0.0050239016191475682,-0.10773743716265329,-0.16475868222404846,-0.60185378965148717,-0.92252614662870636,-0.34763276644215707,-0.031100454428752363,0.80872851726777972,0.074054762245754732,1.3264610551842186,-1.0874238597759918,0.99172359782431518,-1.4715999070170711,0.073609304561399608,0.041969229551554459,-0.65213758243255471,-0.52670379641942533,0.71488105123098256,-0.50117088989171099,-0.10927169552957743,-1.0554164475527357,-0.098389679471110755,0.80033476711704588,0.82088092658307821,-0.56796155357869393,-0.47055530916451421,0.94619268545692004,0.53330539874606619,-0.4433604475886701,-0.1564383114123164,0.24352975959635401,-0.20983929899888645,-0.96086827145082498,0.43507245015065354,2.2927435768728865,-1.1838433379838185,-0.27680883618451951,0.89457237213766139,0.91183019296212309,0.77380564482836312,0.20592977690253694,-0.62260064603841103,2.8179522483853079,1.9449325327142728,-0.97794743706296905,0.42442511369348312,-1.2277850946636504,-1.6442889180638258,0.15312123973787736,0.31480887004786851,-0.15140711910522142,0.70240414531192141,-1.0140614331096225,-0.64264850268080076,0.36808673913489687,-1.1532997455051588,-0.30386343975725982,0.79204743489763341,0.12525420228677348,-0.25726373377902734,1.3480465810228921,-1.6106945974552878,0.60571158599143671,0.62109100025792185,0.11130515289000169,0.11579508054209174,-0.26849926412786423,1.3260790196144034,0.21425738569909408,1.0804429590891031,-0.22256482369465544,-0.6178974924843631,-0.40560066930084981,-1.797074595060407,-0.84610144371463769,-0.83605760059586842,-1.178181298684986,0.94802227571952591,1.7328228854467085,-1.0144928989072901,-0.99190902216991794,-0.17607798791516299,0.15223435235201571,0.65143366414900639,1.0114741028092225,-0.12013230224725176,-1.7690291280979511,1.7052953009558409,-0.94398562629949223,-0.86202271947785969,1.1188548989978542,1.0630384227494989,-0.48901366482006553,-0.25912633075725755,0.67229066886402133,0.27769493330112976,-1.8968861312899012,-1.0620410472018678,0.57089997523292391,-0.086145397785763952,-0.80441366307343209,-0.43678905741230595,-0.90603775552160504,1.5548257252968622,-1.2354121948540766,0.65845264592165453,-0.31108959726812796,0.44407760293732368,0.49117793423132816,-0.34219532584649492,0.36773658229243317,0.4958863369439237,0.87979529534860734,-0.48479229674712393,0.094263964564793398,-0.6710123328116101,0.22340040128230726,0.48067481175964216,0.55947383288357799,-2.0370050328965519,0.88887941989802677,-0.62810021491403567,-0.92925096100594962,0.60458062306189975,0.11423316996870024,0.86989532277352544,0.61128045069458958,-0.028905942902049207,-1.1862058720684583,-1.4443053997889328,1.3917008153038566,0.58673308538708713,-1.1702716494862497,-0.97925516744501273,-0.34495492625331597,-2.3615710829405252,0.58075292058627548,0.82526016531083402,-0.15132127640064635,0.065988415059227701,0.53507196511721455,1.0523160003326351,1.1074721617078771,0.17620393487311964,-0.12662379397290535,0.56583596491256194,-1.0116796530056211,0.61914900543323648,1.1903109886741114,-2.1064341851987072,0.50813025048104477,0.077383034673240883,0.14590208205506824,0.070023688883727203,0.19155235372145976,-0.66662660608154689,1.3146437800888193,1.052703850340609,-0.96654809233026695,0.36108129565600361,-0.92945901212486814,0.45152426048657895,-0.37451061819344794,-1.5874656668678806,-0.99533549326880921,1.9316019115855749,-0.12137570316466942,0.38017265750224338,-0.062879101836847709,-1.17894633781223,-1.7752742145076379,-1.3029814590298485,0.16122539773563549,-0.95862110622300878,-0.57607234703647447,-1.0185853499621398,0.55187256730281731,-0.37918402013623642,0.80174222003430451,0.98972899558733529,-1.0444328577104656,0.50856079347998095,0.5336367709369686,0.56703058864999045,-1.124701771552034,1.2146632104717587,0.61313312091146566,-0.17557800705023427,0.73939979327168581,1.4327342621096344,0.058613761031263374,0.82654226241027717,-1.2200979080125205,-0.14255602318757055,0.8545356390763339,-0.2473427681487442,-0.22658525274597555,-0.016988346699982344,-0.39783603385111382,0.3334779437267345,-0.61049499263390417,0.15677575907163024,2.6553890950575356,0.31494692546832331,-1.1182142194000182,-0.45783068753808631,1.0539230010422653,-2.1983818780905082,1.1682537265923785,0.75094241533949591,0.19609359843455121,1.6803318064914983,-0.36479581377660725,0.9319862210760661,0.92650338137614185,1.0150153080740414,-0.56198893475193012,1.1312375334545921,-1.5312083718886007,-0.020892783862417278,-0.22251979902655192,-0.34873970777613611,1.8925351917329696,0.52176110532297637,-1.6069246890298343,1.1401594496805347,-1.3599297808097546,2.1376676271101656,0.1239083181977778,-0.45721966560518645,-1.0123171546013541,0.078777172407562226,0.49650407567187355,-0.65753094336599893,-1.2846429659388057,-2.3430221221731946,0.20707242196550579,1.4593440335221199,0.017970404420080122,-1.671860600107302,-0.76717784512559728,-0.024003860165921095,1.867822802686546,2.4339300320029054,0.43386147453151508,0.87445811428609566,1.2579699688576824,-0.077706134647609656,-0.50395926420148041,-1.0063711543831688,-0.94799478816111071,0.075237194001018443,0.29763797310257539,-0.33281914904265547,0.95885096629698618,0.54486406959911804,0.48226006570603591,-1.6805080681520086,-1.0688506146290013,0.9664417255244423,-1.2357297190575827,-0.52159473945595469,-1.8518842961553819,-0.76127886165560588,0.39286947685214452,0.49720531736934875,-0.550643184880934,-0.031154272166339862,1.2744164611495963,-1.5999899684762606,-0.084764692978832476,-2.6536878334752703,0.79667080207964025,0.38358102650312093,-0.65624122993312306,1.1378594224392196,0.26900709251145494,1.0753463934583229,-0.72237822161236376,-1.8562700371307752,0.26709594998812347,-0.68945648083147359,-0.29898486207374697,0.13912121643227157,-1.3974582768080019,-0.81475075976672939,1.2938881899523902,0.79444004815883473,0.45341587158003333,0.5382465210224856,-2.5539171176495126,-1.4537356468501013,-2.8584195057551445,-0.9071860249202528,-1.3004681716145003,-0.11395103385010261,0.61661917715966874,-0.075065969173862046,0.040233711123438418,-0.53134883421565182,0.14728914751291741,-0.029043400382993158,-0.1905714482190729,1.3914169179709259,0.9815898627951638,-0.090197915234818432,0.18200297443742117,0.34942097606987071,0.51885287766179122,0.44281405183596945,-0.74436907556302134,-0.83782221972845239,-0.5975389953658623,0.022718150015774548,-0.45339506156015541,-0.77776770974146781,0.19704610439955164,0.42248505461728431,-1.2652424697394002,-0.095865396939864844,0.27423956104448266,0.43745248573168427,0.65354255798492589,-1.1046046110326448,0.038398068881363975,0.5286205079024644,-0.88466120702443218,-2.4118506400674464,-0.1601448448663477,-0.88486759734152076,0.17673217310363865,0.59965897449270011,0.77664252356309449,0.024893395676772768,-0.83991583020514682,-0.40088518393883416,1.0350088375206463,2.684877348183706,-1.2767535520454518,-0.36457001467526406,-1.2884304953164638,-1.1797569828378214,-0.072755060146508954,1.012559616413282,-0.050639748917300879,-0.28576797873139592,-0.71736953277440696,-1.5800046636913174,1.0905022485245,-0.5231467777522083,-0.97167725524374937,-1.1263282237592986,-0.48101612344043781,1.9914388532751723,-2.4130689041580915,-0.22528588744525843,1.9386406701032717,-0.59587598614015713,-0.86020584479143758,0.22099536096380873,0.7871578257237577,-0.7504447854863332,-1.2320293673808591,1.9961627203081023,1.4690724610144399,0.36919219178812701,0.73130414736333249,-2.7746213552208623,0.74837305178994695,-1.0435598540378941,0.9965955324263881,0.94951808182577302,-1.2414367778486497,0.3049297024738658,-0.64387927625921482,-0.023118309134349199,0.62730422444908152,-0.4397555229944568,-0.88519887475338821,-0.42293106970369865,-1.3049772324161411,-2.6654307327502429,0.90282827140753219,-1.5675160969867148,1.0091902221214473,-0.46880952671177722,-1.1805528825392291,-0.44374608157132139,-1.5404964225397908,0.11713086277372216,0.80835008203555725,-1.4058143511750674,0.58329431114683949,-1.5251653423661193,-1.3927731265562717,-0.33953162889500055,1.0367670298709066,-0.6140360136793247,-1.5188581659740616,-0.72126578979457301,-0.13067092453418067,-1.6170483272907625,0.57376408500999954,0.45558711808306401,-0.60052802611557632,1.4915247774580669,-0.44374403598587137,0.88293354997645579,0.78661531946724017,-0.74339362240196427,-0.37537556443966519,1.5933997629740193,0.60874923510863721,1.6038212628987614,0.8178440999463078,-0.38179939425348086,-0.26527287650068648,0.82164901226914466,1.9016696898450973,-0.47373400092887819,0.20125938829630452,2.2699193655593182,0.69070887528206726,-1.1871129531534426,1.3603987528338468,0.38679153930260296,-0.65052547815357264,-1.3719342315221543,1.2298515036064674,-2.5896930860852403,0.96467928830812077,0.59433257047754529,-1.1006825898261741,-0.22779257026900745,-0.27341006854112643,-1.5450085370101352,-0.89906277289715575,1.5894345290147822,-0.86128513645947147,-0.73093094197027464,0.78382245352640223,-0.98276742939638184,-1.2558411986894036,-0.31500228545715347,-0.32047981337049919,-0.92963994893641877,1.9128053968809526,-0.37794674001963674,-0.79549132259195365,0.00042047077159309773,0.57301972737502882,-2.124155937768696,0.98268620625937142,-0.86875458312571685,0.48816410185899861,-0.53496270253902301,-0.39375975836164268,0.91992715646714185,-0.074066093517136999,-0.88711518133533485,-0.97490458890559217,0.70017684902320543,1.1099845601587637,-1.428217349977065,0.60734198377939397,-0.40355134064175113,0.59044022928546069,-0.76433492601496678,-0.376836859554394,1.9823538960513534,1.8058072937529117,-0.24798286787306159,1.198899528467178,-0.26553886069595484,-0.19061879105603061,0.31789924454725971,0.16360051298440526,-0.59681116306035709,-0.82339345134753872,1.3607724967014054,-1.8997240713829098,0.39469414060211916,0.28462323347898666,-2.6334911799739587,0.20292882277286647,0.11855949379527837,1.7230162549844206,2.0391253366253856,1.0566625984103393,0.19887429000553564,1.8457989907912724,-0.044215532385209921,-0.82950958659190199,2.3394631954418132,0.67648427173359527,-0.69860563125511821,0.94251251479556353,-2.0629167539257121,-1.053344273803537,0.80161162244020856,-1.1222114600982478,0.46568596935692363,0.037393329929962561,0.43676999844382047,-0.19422623916022877,1.0370691115725956,1.6552133001797926,-0.7620181507395879,-2.0996166120842563,0.26123709219365399,0.30996394701314622,-0.81054421724227099,0.052562709500652463,0.053486441554887409,-0.87149035963283417,-0.24953783160192552,-0.04698601496412981,-0.24994152014734569,0.1119169083639879,-0.19667432727492631,-0.50502826174549975,0.79801199411643831,0.82428183918601905,-0.020899630404005533,0.1785733181351179,-1.7960593796944471,-0.38502459110375137,-0.74679346505808297,1.0959812972071872,0.15060652268425742,-0.089866001123479811,-1.6842400195241438,1.03756699459955,-0.13556608330798342,0.88116322023886029,1.8253948206335091,1.5535437947910042,-1.3942057141777962,0.10836538829495507,-0.9947476482474864,1.0109084417778378,1.0643165752625865,-0.69461308297557978,-0.65423686783215196,-1.9306986097507319,1.108516463769492,0.26911447147571693,-1.6753823984218943,1.4788136949005506,2.0903659875781169,-1.3461926028392648,1.1370773153836835,-2.2646771647369786,-0.43227424936774561,-0.60551951867345299,-0.27140233429540717,1.047421637386639,1.1549673142642833,0.38364070373702808,0.80324864951397024,-1.9523210913409534,1.7408567080209805,-1.342895923376632,0.78595023822562393,0.29296721943811116,-1.1481029504212021,-0.0054587682754051667,-0.56872689171434276,1.1070030643211264,-1.7007042578330391,-1.2977697334849545,0.50861742264051235,0.48213628454756036,0.081817779123660866,-0.87469914239359126,0.064941379785824413,-0.16979205332673727,0.0034525172753510163,0.34496438323397854,-0.41627264651473311,1.7091611850184958,-0.23343354076796891,1.1544061123644644,-0.87891692162386126,0.53997616174660912,0.40283907018545861,1.1090837890434537,0.7554081602885887,-0.34915059860236181,0.97008080073189362,2.2707426994365769,1.1497801595467061,-0.74387563980847515,-1.1379152415040419,0.089348480905701994,0.4120009448575106,1.6441790187990326,1.6699124052922776,-0.22744254981372417,-1.769409258320769,-0.43370787484402329,0.26765271199927798,0.32008192173630834,0.36566392220262472,-0.09327815287498166,0.60261766384657589,0.47960590500445383,-1.470301625255874,0.17167168451203324,-0.11484477097936224,-0.74131902710023312,-0.0077871652991892571,0.81519406362457392,-1.3744877192681226,0.28656095710803658,-1.7887920984095209,-1.3658290260586976,-0.3896476867186025,-0.67498104362581535,0.80497853209388492,0.1222065475448512,0.90625417238532335,1.0540608138455922,-0.26565905576615984,-1.1124293749968586,-0.99456292466261453,-0.28403423644311693,-0.45172945977583934,0.2834524989426167,0.69345746418959764,-1.4728005488946325,1.7866789853233234,1.1967704548907283,3.1299526496436281,0.60719406880289406,2.0009353817844557,-0.83174598814567857,0.514217680050297,0.65753516483517782,0.84223266417428644,0.66731465137100165,0.4586698716899657,-1.2664572461732575,-0.24707684784979039,-0.21519180270955032,1.1276445050346677,-1.1204393002488249,0.27251817981188725,0.49486285897404259,0.76832585481675575,-0.82059580214112549,-1.585279451944996,1.6098928672061346,0.010070564141158467,-0.14057110296806491,-1.4984470160917043,-0.98041911325676234,-0.95787313430822529,0.07883181583645775,1.6051710029314357,-1.059511299302117,-0.2339180256977498,-1.731256823450142,0.5381311966978658,0.64020244307634533,-2.580161887263992,-0.10517116624696213,1.3282553799971417,0.13294043829357416,-0.35038120938144396,-0.18814318254274873,-1.1708115307524851,0.18809290155849359,-2.1158408064800662,1.3525535163076641,-0.8833166164350349,-0.78742556304828815,-0.027480342054150828,0.41038265002086832,-2.0498922082577815,-0.62290349987718852,-1.1008570267960978,-0.44771267964941275,0.41455612196217273,1.456205061454616,-0.082602498719218057,0.28000919720079309,0.42078727684195966,-1.4820569830562076,1.2652432899211252,0.76923540835267801,-0.50495055108448905,0.31332007828377756,-1.6073943176245593,0.12641550618511097,1.3897705093635824,-0.10175770557324131,0.12328908447239202,-1.1051576190315362,0.077528278425712305,1.0992827740663547,-0.22442228030028197,1.7561526668190262,-1.6364164389795537,-0.21442314341716665,0.49267375503746846,-2.3248266511798565,0.23834300495362057,-0.13486711204420063,0.079751208920717367,-1.1855967864525905,0.40431633616575074,0.5036594962321741,1.1726718008023806,-0.77945631013118799,0.38749530034147001,-0.3821778783164691,-0.73737602634044541,0.80610998676289725,-0.69642494523371556,0.0091787116986298163,-0.72307454724789755,-0.89535496778315238,-1.2272069365445684,-0.80157526312114324,1.5236860685912403,1.3449008691787416,0.34159542804489634,1.4082195483650721,0.42993050917055436,-0.30176911860371863,-0.68656317227728969,-0.045864258414738436,-0.50122353051101609,1.8252754492738001,0.69928253065158896,0.10444899852849911,-0.23677919662517494,-0.94468365157493894,0.8740256001766844,2.9861186129915436,0.066538550854090772,-1.1735392224211145,-0.014548958673899999,-1.3198514744373486,0.6439322301004371,-0.83470574575184309,1.8710774769015559,1.5610769166074101,0.16217554412436799,-0.29147737227518755,-0.35561016277418073,0.97272066044817163,0.50269721616482999,-0.64177403560025814,0.32013802461963398,1.1803246662976374,-0.3348715228910239,1.1288428212162216,0.987121487373118,-0.32441671293268426,-0.21881786182249532,1.7365704972411249,0.74352250184208024,-0.85808548700691401,0.093079064531322836,-0.19595480858577549,-0.73243030235081685,0.9046562445425439,1.9608768015202758,-0.015607991529071523,-0.80902270758947026,0.88733689002051874,0.0097306225904400124,0.36735095626681807,-0.34549192319638572,0.61167065715120483,-0.44111731282262917,-0.50163578146458254,0.61062002388846115,-0.011802969332928714,0.43603557594821463,1.1489179164585555,0.27872867517557703,1.4012982276340036,-0.44158911338576351,-1.0660804805705002,-1.4107598472319474,0.19008383007475257,-0.016733849855145477,1.0622705497032237,0.60994482498709224,-0.66313528763054663,-0.96803027157790444,-1.1726994235545849,-1.6848528958282354,0.88401945842002405,1.8682118256579292,0.18051847154694772,0.801700503253579,0.64055812586264471,0.18006980153591765,0.52727209501944361,1.1540169089813865,1.1753206233003373,1.602983552186156,0.55919311192316956,-0.25968082363031469,-0.25565936895307745,0.76042685851898295,-0.83987940403067973,-0.95066913142853837,0.81973843789549772,-1.3622462713335111,-0.82651962036085824,0.26161485238495152,0.83507040166263125,-1.7384963683628012,0.48825503423615557,0.6090330426788888,-1.5199398451636692,2.0159956749248669,0.30215611133372999,-0.097352595198796327,0.58163053090694095,-1.5742279629989275,0.4125792768139962,1.3676553900679373,0.3101308352176021,0.35368083366956249,-1.1707663217594642,-1.5055460352707761,-0.27974156573211006,0.72334093603317662,0.35062023450371382,-2.1149010288345744,-1.6864925795366024,1.8758652793327886,0.72650046418518699,-0.50171265644234531,-1.3018491300006998,-1.5012505922588475,-0.40030024999463271,-0.54441339747416995,-0.40504430130726193,0.26092575900451498,1.22763195334026,-1.5130060483646499,2.1231861428276111,-1.4259414863531852,0.74820446536205654,-1.1596199794792494,-1.1000596414836623,-0.57385029113298658,0.9877789789175524,1.0731292080661456,0.67123824845515445,-0.3706485463254427,-2.5806899900097475,-1.0090740736763741,1.4873414680590697,0.73178529336961895,-0.33742677884243422,0.21192282205411891,1.9157036782024999,-1.3446020101708556,-0.38807435457757322,-0.32419272142926681,0.039261622915294038,1.5917432312832493,0.93733247396481667,0.83380865014756556,-0.1075827519518347,-0.68583875740040023,-0.30965962266979141,0.6051380346831543,1.4913177861261022,0.83248316610699213,1.0282070447991485,0.064043650115778145,0.42824420701766513,-1.5394773848362149,0.42762841254673278,-1.2197422363205508,1.0126156500497407,0.26766240393141372,0.31570218273612288,-0.23389857930762092,-0.03700854351793071,-2.3735162904235141,0.10809605946589033,1.0023082176754694,-0.48860084949649724,-0.23617114619103102,0.77387158628594976,0.13680768718518904,-1.2541391253011012,1.0734615391085682,-1.1756629841403043,-1.3634723703788612,0.99406697325910265,0.78896458117786505,0.23917944101040922,1.027844212140991,0.27687844957038565,1.0696536961527194,0.76578177204168585,-1.7055264512034234,-0.97104128195280792,-1.2545537468916459,1.0238602896970022,-1.7546394431596171,0.25878976066676906,-0.58316117022449876,-0.71615147979420823,-1.3855265951381037,-0.50081688765802856,-0.34721548449477413,-0.37534730433597985,0.35170516219178644,-1.3143460761903578,1.6465843561415812,0.10470819640572422,-0.039272938251177295,0.72167698223619481,0.20007998259359663,-0.32157995109998011,0.40172227851907444,0.7946979502748126,2.0706094166174838,0.54378283579852416,-0.68969948843777273,0.51658865613207539,-0.45905467736274774,0.71247681706672272,-0.99342944607525974,-1.1258535929670648,0.58684402237204125,-0.48488565639679188,0.50130895720654611,-0.0008104907681451049,0.59931007907794787,-1.2812019064202975,-1.1097270769757803,-0.026243636469090181,0.3332133504809271,0.3921393988844486,-2.032739512210437,-1.4949694996378522,-0.43216394140058645,-0.7915210338941665,-0.6287081761281601,0.28541582557952688,0.81625891881462032,-0.97506139669326441,-1.0951124796665364,-0.83261643964339371,0.78094675653291434,-0.35895042530590282,0.31650430296586568,1.9811772533479854,-1.2729471852895131,1.5394940817331928,0.514659780023483,1.2564121173031246,-0.10740826129980038,1.6111342788611331,0.65071560206243728,0.66515872995416681,-1.231114670761666,0.10424231908166001,-0.58120775770132305,-1.2079927713266017,-1.4836092010204163,1.2212973426603675,0.48600555658092925,-0.42199711289592362,0.55599814517750845,-0.22259287901422256,1.6701786509527565,-0.39305944909749335,-1.141573833605924,-0.38944683021044224,0.5112752656059556,0.59935453628294399,-0.50859575339683616,-0.39840725587839859,1.2131655204103182,-1.0096309205729446,0.21753711401657597,0.33496668271172336,0.53627612181355711,-1.7434562971061511,0.70509660599645385,-1.3403447515685512,0.21004402506749162,0.42498751039098415,0.66670411328615342,0.0080086027628194414,-1.0364867148007717,-0.73139819925257687,-0.25339575298755102,-0.016514807889407016,0.15077284559433149,0.52645044437012067,-1.1084916078739027,-0.34244748326720592,-0.0021374256796782942,-1.3172287667963101,-0.66662918880448818,-1.2195931449816204,0.90751528936511761,1.2882481652762738,-1.4501968169480215,0.57366671103128863,-1.1114715998234368,-1.1632335358844232,0.53390560199997672,-0.77178170159967252,-0.39326484249138483,1.2000739444158279,-0.64510001081005619,0.90374966929558109,0.19191285205866548,0.97157502558256759,-0.53404845587178995,0.64107613395101148,1.3018582901402169,2.8467465757861228,-0.55682483010159056,0.092401702272329508,-0.11874705375811573,0.31764216890560015,-0.17659218694503792,1.3290733240776251,-0.42298189381457668,-0.47130653414229029,0.62179942056220994,0.83736252591119464,0.67946918638170539,0.61583730967794748,-0.55049324094636942,1.5867953008329059,0.035190156221055889,0.71780968049157823,-0.95905293530955638,0.39835129212735348,-1.1307889079034574,1.064351250702158,-0.5081507677236734,2.0882941357015583,0.16361909065190555,0.27100403860062966,-0.19200596562405337,-0.4586747337074415,-1.6857289948441199,0.068743876538699025,1.2460524287253645,1.5764283829681307,0.36335220246052757,0.36504230267057441,-0.47781923762742473,1.6469113041832251,-0.25885462279841087,1.0250852930669321,0.027213527702126736,-0.15985559811851202,-0.24331639164211427,-1.4059081867343139,0.41362540666004388,-1.3382323153271738,-0.66405628321805543,0.86184687668930005,-0.4335060938701536,0.94495463713972472,0.51716637380591757,-0.076451917436017036,-0.99663992758447006,-0.075499435083681593,-1.3714264144037986,0.42377246760852311,-1.9109865486054101,-0.56654115643320213,-0.20620071740198359,0.24461058757074913,-1.0527695307036593,1.7037762798107021,-0.471133414820332,0.68505967968646597,0.40938392719456618,-0.16215864867755192,0.83730282582238025,-0.58397507315693487,0.66877622138657278,-1.3634407330103091,-1.7119706857230941,0.22690225546949869,0.057755211180734685,-0.36541757785773227,-0.69043804433262235,2.6646903477181767,-0.31648807409692453,-1.057254721699894,1.1405938395936999,1.3911250767914225,1.7365887184330617,0.35607047303423783,0.57951383864969785,-0.69266025443833346,0.47213277089329819,0.7252480150945555,0.055795177415212248,0.98231156299123767,0.92372890628414672,0.2991362357508216,-0.32145433419303754,-1.9973579172753357,0.34698210575793315,0.57257666057957968,1.3166005080226473,-1.1899001403039029,1.8744470650645961,0.38239691766821265,-0.064639506569833929,-1.1823423885488225,1.6502921474598813,-1.294215376245621,0.403441471145983,0.29172524732050154,0.28101440611566414,-0.59014814389022507,0.33503255179099795,0.72634720713515366,-1.1128826415358626,0.33230812302391077,-0.079646342552171914,-1.2489691686367692,-1.2833324230245882,1.6393385638057354,-0.48691082670537106,-0.25458823680481701,-0.41243392364612169,0.29032605487152452,-0.37784673566611249,0.68711087943944471,1.4900942926686462,-1.7203952708463974,0.50308672930905374,-0.43451193526743537,0.49497953014636858,0.096750216604392439,-0.62694685053047261,-0.87326825989106349,0.062024236957236495,-0.9303246077738121,-0.6669530251272674,-0.94030811150520111,-0.3293112317250671,0.024551635024611468,1.1245179623374544,0.80812780432559539,0.65247887244775393,-0.86352646848562309,-0.634701320907328,-1.6363520065966422,-0.74098061640103086,0.38566166097508509,1.3382438498062301,-1.136719170057374,-0.12935026443149769,1.0735295741341937,1.5194877356883891,-1.8944007134079646,0.065771830298543471,0.051547614230764996,-0.54914636308624265,0.65165488157623186,0.19912614938764314,1.4797501983308448,0.7089197431001204,1.0790073872174224,0.38102157795215164,-0.93660024226697569,-0.74366775906312654,-1.3939803896604663,1.5116006985297319,0.4366691922700528,0.48798692714443459,0.22314090245060847,1.0374798494415349,-0.56233165091024762,1.9217968667906982
