-0.14541430973570477,0.035104825060073272,0.8341308373877917,-0.45781372863467579,0.75584065517412069,1.0197929125952461,-0.60627603464335966,0.24140934403601047,-0.86184373705618778,0.51407056551294117,1.0866641177267247,1.4317341061419293,0.59572785133697914,0.69923493612213994,0.089831283729316688,-0.99801576536966352,0.49543355187316312,-0.68122413649106894,1.0936209116127098,-0.86806349740805699,-0.51678471667366044,-0.53966315713723956,1.6897871238987512,-0.1420795997752568,0.3652978152820493,0.36318992884896434,1.3065620908402968,0.42220816678379502,-1.2617812977881189,1.2921129656031924,0.23440790787402957,1.6634173631844467,0.73978128415392019,-0.11871494033177278,-0.50095496449617227,0.34332294801509866,1.0392371770833495,-1.8962621153879995,-0.21759992824248128,-1.2664917664708957,-0.47341099446883483,0.047546837339907402,0.92449471996068067,0.64023681506104746,1.1243233484880661,0.2334500245449645,1.5444481980203106,1.0416095121005116,-1.9556087693836011,1.2599571911477083,-0.87267932689596339,1.2647390930062998,-0.9246904581684191,-1.1363997725198933,-1.0666931964217226,-0.30124701711644564,0.76048383503096872,-1.2844129120659085,-0.36420956131419063,0.34224879181283074,-0.090461585613488688,0.18271180710390666,-0.53001876595430908,0.11121310433095453,1.2312121818187747,1.0323550930593997,0.25496503198312487,-0.65077000039849275,-2.3805346934850609,-2.0121349468163032,0.61144744118595451,0.98695626659518298,-0.97866335047888975,0.48836170787442001,-0.55606918995448829,-0.32311647643079933,0.64363780821181504,-0.28931812015350777,-0.072332553283717335,-0.41655764604546458,-0.16150224020722379,-0.7379974705980531,1.4042853788225076,0.046717775340659164,0.98169032877470741,0.64237983829496825,-0.31075849250920201,0.84468796524297729,0.7470709023872939,0.82580563697948539,-1.2887806787454201,0.81418411278981129,-0.65362372267864433,0.1250053602129978,1.7027140256693269,-1.2924622565730031,-0.8363677581354042,-0.31775274027557715,-2.1893347593500656,-1.7297884063459366,-0.26539341110584375,-1.5523300296339764,0.3887564133711387,-0.13529559045148531,0.36542677722725725,0.92991347656239176,-0.084369131971934533,0.13443419308531263,1.1976955895877017,-1.6081411116961957,0.19973562452394822,-0.67220754155946261,-1.3633033780633621,-0.60220445297632919,-0.86551803101037628,0.96170978525935991,0.90749965087143414,0.59266113310885382,0.59989871148537144,-0.41749263875332443,-0.22443851004888374,-1.3414877866874859,-1.2099471501234018,-0.091667041452207179,-1.5169368834460997,0.83186900976307587,0.33863374154960796,-0.79596342765689743,-1.5716601656559683,1.4986677375141686,0.64838083971792049,0.34056751738830737,-0.74510160557124949,1.6180215041052104,0.93351536208231412,-0.24438709086183,0.40808696585402565,-1.3199133572557724,0.26991569432533041,0.41480862039342736,-0.48811996251709505,1.5921208050339006,0.36328074382199832,0.77098862504026566,-0.40511376211046668,-2.6660415129072934,0.40149291483281629,-0.95637187534827828,-2.3438225353597049,-1.1286064307383699,0.24441308103580714,-0.68112202397534805,-0.43011372567842376,-1.2846940278433165,-0.68785294866338242,0.36397796977305835,-0.37792542067275775,-1.954027724375234,0.085645565906158336,0.89224069942176998,1.7293775634110382,0.6592959766387857,-1.5154105145308956,-0.28159492356202848,-0.53680026930666391,-0.41611456540496072,1.7177806020334809,-1.8697960404112404,-2.2505163768109964,-1.0397035696396861,-1.6033207025997533,-0.079268667105098362,0.22225559000746289,1.0264000140805298,0.33646028122975141,-0.63478759430769804,-0.58987046823409484,-1.6113331943909959,-1.2496123164512172,-0.44005329750804734,-0.18639586410748737,1.2504271784908361,-1.0528624822468962,-0.62487239333871114,0.40412263540605109,0.85884302606540386,0.54944438596745537,-2.9786571206898871,0.40936897529541622,-0.054066481111868903,-1.0100643153051843,-3.3090840837136128,0.052350116272512195,-0.50316373961189209,-1.1907844975339277,0.41454036948411138,1.0788344859501033,0.28503050899005966,-0.43920050847762832,-0.49282706295096862,-0.62035095493468473,-0.88117106646349519,1.3738569435641104,1.2224149156936719,-2.6607776274313055,0.26632736850962979,0.24324028670294134,-2.5855717154918656,-0.49853243597449776,-1.153492271116525,-0.47247279118626878,-0.41750771086948013,-0.90035550678686693,-0.54951386014907455,-0.36792218846172475,0.13300092077789777,-0.30434936688738273,0.80652922405245508,-1.4320184711969559,-0.43934601847578086,-0.32432515568456077,0.90647385130653912,-1.7842298520929942,1.0907331784320859,-0.44405599313480199,0.72276819542462378,1.7041913970812077,-0.21391269392579723,-0.70197748586105757,0.83112732243136556,-1.8178422343602203,1.047575116061088,2.073274785162718,1.5113610143835803,0.25434672954306525,1.372072600239616,0.054241348297401362,0.42045484849414594,0.74582018762297997,0.50012938813808072,-1.7187538626078489,-1.5155039148858875,0.070931167280389826,0.23336617782601918,0.17717147014481563,-1.0774990601522456,0.020133463512700105,-0.35857938800073164,-0.82841551370968181,0.18479183958833195,-0.003682566650506456,2.2851702587992291,-0.38813676436041256,0.38858434391026453,0.48865646349754999,-0.88567167389492285,-0.7623533202935191,1.2231218896179543,0.040491353229601922,0.44895855209646363,-1.6006426098301347,-1.5221002023484713,0.96455578966431132,-1.5400864756325474,-1.0895434027295856,0.32236253702480439,0.1217989786005385,0.80221413218785131,-0.48808532331291815,-0.91469621555246872,0.09498840304709566,-0.68289537488163776,0.5097505023020461,-0.66149944235576252,-0.42578899691379363,-0.23166806067224563,-1.3552095817053911,-1.0994515362763015,0.15961515455901981,-2.3017567793972464,0.22392679666194848,0.86278374729311058,0.45483285622232328,0.034239365648065262,0.47344439180262932,-0.58991765898517101,-0.36769000699104781,-0.36884752389102415,0.20231379879111719,0.3018451109884091,0.10135272373263769,-1.0423599849784884,0.82742215924123064,0.94834000388332651,-1.299442668163757,0.94437394432364918,-1.0620624697971144,1.6941053772530121,-0.11390974686759379,-1.4756138881955028,-0.32889580855572426,-0.908377631891917,1.4609208708026102,1.3232408395119089,-1.5989030700472011,0.24235086509541501,0.93273344384054835,-0.71254098454818893,-0.30632058214776586,-0.32422205742625809,-0.67282103338116783,1.3813170664861252,3.0289384160273412,0.58472026032906199,-0.99688227375110194,0.81442128191765417,-1.0082297574020256,-1.105928659882105,0.97729895344459794,0.47549537459265195,0.066097319909439109,0.20871501036057652,-0.48309342529395061,-1.4149773150894782,-0.80510629338667927,-0.69406995711465269,0.55890850806577175,1.3522568056491751,-2.0470543098107608,-1.882776334350162,-0.92876013777664901,-1.7665877284292537,-0.18456250995358817,0.3834075842016888,-0.74583183671808695,-0.019507722684417708,0.48058671181355689,0.11330264513361808,0.18754471576669793,0.12055140023400408,-1.0471724193757035,0.80467441183095323,-0.095494546116770163,-0.51362631263251679,0.56381687699041383,-0.78603427589818431,-0.81538087418936356,-0.71546541703428268,0.21978047575102133,1.9021648965262172,0.37586605465053624,-0.2150538464110319,0.24403747272462312,1.3091305029014446,1.884347952439285,-1.3648344322403223,-0.30855248744263847,-1.0001408138953203,0.055274074678483213,-1.9564985437967577,-0.52698686447299237,0.12159427583491852,-1.4871564349865742,0.19944270620526885,-0.96717806418457086,-0.41842430580260737,0.70017445903761932,-1.537269940876564,-1.9770803814362534,-0.66945171251530777,-0.15097825017635433,-0.46574968698181146,-0.29842101158027357,-0.17717894890337579,-0.75613399491918976,-0.33380010549352795,1.4010662058336163,-0.29188343930544303,-0.50115454184052977,1.0363997936718004,-1.2728097364380191,0.60937734323629189,0.82370211799607429,-1.5070708122032608,-1.0983500121675018,2.1755829832146585,-0.74410392252256741,-1.3967261018549026,-1.0084634276666518,-0.35632043819848497,1.9180556659061601,-0.42078403455977037,-1.3174679146400365,1.0856237752284128,1.494978564926021,-1.3781488630442349,1.5115195373726524,-1.2659671481886967,-1.1652210378358023,-0.73923241632856052,-0.28335510366257971,-1.9777373134531095,0.52375152550538817,-1.3025329001962751,0.076797073037968788,-0.88884363351839613,1.1094181086967736,0.096806370792426502,-0.012361261793762126,-1.1713304613282769,-1.1767803835030839,0.33561261004437809,1.2327235449638618,0.76278977178187668,0.32692740346552307,0.24212405220993813,-0.63054439924459804,0.52942214257672482,1.15338767957216,-1.529856775187189,-1.5901506512110115,0.48930209153098431,-0.066941397442485506,0.30516501444529015,0.55052064650417765,2.182589305837737,-0.092841268370111793,0.17322562608196268,0.76133161857308784,0.59686489607122073,-0.34668457950231335,0.51203376827114111,-1.1465303518757632,0.65298744690186872,1.153921470561998,1.4312907878661618,0.45460331240782437,-0.56721555221040443,2.1625778772304658,-0.71928427242772075,0.51834364330556426,1.3125325079495467,-0.56966612871591771,-0.069547078399146547,1.8219446514559654,-0.62776863025629981,1.2204353981915106,-0.91995090272380264,-1.4317174334863618,-0.74108794278540069,-0.55490818111435103,1.7511154805989353,-0.5434341605903813,0.27333504732917546,0.30781543090112684,-0.64290713462339544,-0.0093432224728712508,-0.48118502136056102,-0.77820052987945487,-0.087396566994541028,0.14261779511827058,-0.17291262290837364,1.4184812539675609,-0.55692487934568824,0.92790618277345249,-1.7002833521244347,1.4692685421292462,-0.36081695029985372,-0.26084422096853987,-0.43099136106238045,0.78486523259646379,-1.7167687142146424,-0.5075433145012973,0.67177510743607116,-1.4257973168002709,1.0531777439340357,1.1564517296618948,-2.4427120642951143,0.11366583718848401,1.4050159819471386,0.11361720031443059,1.4751927990870941,-0.17367261751467447,-0.60644254156775668,-0.87962721317782577,-0.83900295694546334,0.084996513000498167,2.8996181666791614,0.83368899944910246,1.1688833606486795,0.56646420290983035,-0.95808422732179321,0.42938393216994147,0.049669874069127762,-0.33529707760320643,-1.2382161029064582,-0.13087943143935621,0.48072472964798924,-1.0129609831307977,0.46896895232729296
-0.71909003738502442,0.088063165221009376,-0.40081427107483741,-0.11427502094434357,0.22063590368413344,-1.1142069088283568,0.25021182379421159,-0.93409061768591761,0.82984904306770868,-0.016914231388101442,-0.63850975240080576,-1.6832618987461736,1.707335283797238,-0.013760092680601224,-0.14932337913952137,-0.26680760618495331,1.5060109497084913,0.36688981547278526,-0.81794195099679989,0.13243566900028897,-1.0621076525859441,-0.0051531546009998793,1.4103338340733267,1.4604250664101541,-0.10839991609083396,1.9141608804897428,-1.6350458987493457,-0.24210545601996392,-0.29249038180805337,1.4116619327773123,2.0454071553873781,1.6395949796056684,-0.34922598552149353,-0.24719227991551107,0.96200664383307255,-0.3010561268812032,-0.17844199836213429,0.6326051948805389,0.66078827129680806,0.50742325320879123,-0.09663428443793784,-1.2354370186234069,0.28134169561770472,-1.219295121779536,-2.2588247075302097,1.7581083567250937,0.96020641801722584,1.6357062510142295,0.98046904878806485,0.80040400312388593,0.20182361142605096,1.0129457296398268,-0.0026195873813576191,-0.5582299353357677,0.056791619436272728,1.7519002918614619,-0.010031973596347757,-0.16339488699097091,1.3949573131658781,-0.087621135455150101,-0.3867021617306674,-0.33772582790904071,0.1710710664754066,-0.63103093549219336,1.8330055756153167,0.25027725902375225,-2.2741551630729817,-0.84170865682463514,0.062430399676082125,2.4182722763280378,0.79372366656723425,1.3323093246508595,0.17681542127916755,1.1438876911070981,-0.59204631575092181,-0.2387364283656514,-0.21410318986306157,2.7348094649113204,-0.15793562656531487,-0.82186815611129882,-0.39246103172345898,-0.82598980026300861,1.1767109874617483,-0.94006993193372068,-1.6876038799571225,1.005080755742604,-1.4677676305238985,1.0852708185093973,-0.025970020622113187,-0.65804232846623145,-0.19480743188362604,0.9097936254997594,-0.50993187095074366,-0.13285082539692114,-0.15332565703754908,-0.2595318936985761,1.615172179601243,1.2929188029771657,-0.99682559230411361,0.092714785318587761,-0.29858787469091697,1.2390146690482986,0.11840828564968775,1.3259624298643102,-0.97166627537435535,0.49176758730948666,-0.74700037303473943,-0.26958666344752669,-1.7740015664105762,-0.68683726465755501,-1.1424391929545592,-1.9387741357430672,1.6090053482600308,-0.006222710573756565,1.7843788946179022,1.1142766009562226,-0.57533160721477705,0.66966474236962326,-0.97130380157327911,0.045173660221514991,-1.0603103304269055,-0.74396649225482114,-1.168458377730321,0.16655472759753764,1.2384107093728058,-0.012037958073372811,0.75475090274640633,-1.1889216137402883,0.63182186009272434,-0.26706267626132058,0.55633356622364705,0.22269656119021661,1.510469669554682,-0.44993861683438696,0.097436324795020693,-0.61258793887743901,-0.44700050164520055,-1.5542528379457201,-0.24498187593333651,0.45619828851868177,1.9850293437513349,1.1847400621129094,-1.1885271423149435,0.91149635187087841,-0.71879094805072663,1.1432603225297235,0.61182140466948498,-0.91029303720889243,0.030579271502065075,-0.41644955565229713,-0.0046998490481278063,2.0251056183670912,0.33406655522157797,0.74339401548322293,0.58739289317978516,1.6393037446533973,1.4022590222111486,0.70376769257990801,-0.16775577738953978,0.076725536365006439,0.12365661668081653,-0.48662235539308502,0.091168002668622392,0.26381994254815289,1.0966082640303807,-1.0482521180290136,1.2887393512640111,0.93128694265075529,0.80621378739930061,-1.5844393646687669,-1.7928365594137838,1.575337604295318,-0.13920863004016987,-0.00484441038288179,1.1857010959365819,0.40266450654649855,0.90777586779343711,-1.155156209625924,-0.97631799629978178,-0.6197987145818924,0.31327665849268937,0.51509007717020217,-0.068554359377924812,-1.1006048543235099,-2.523525911390446,0.86046045463492415,0.37112040885379549,-0.42922033205809768,0.099469551922877111,-2.2416675499432026,-0.057611355186390718,0.019220582102250718,-1.6431508566130171,1.5855665967792221,0.5085642214072561,1.154415363136418,-0.2455629489664006,0.41788565229619007,-0.5876069712305334,1.5892281077336361,-1.2134926578489533,-1.3885505460736403,0.98561204580058903,-0.080632948225885598,-1.3057743615706641,-1.6647071749503277,-0.75568794845496401,-0.43852654462639712,0.77314480688537002,-1.3365690469062439,-0.38070187114089477,0.11032938825795048,0.47580264318745563,-2.3009282980074328,-0.87096417419847627,0.80192099500270442,-0.87988790167927122,-0.057043420848980189,-0.17389392324654893,0.58342439581712946,-0.67808724189885328,-0.20418538024319788,0.092145694915740969,-1.2524804191618639,-0.15092423115888737,-0.78972164877075957,-0.10475038045327516,0.021588839825421445,-0.49494735666832751,-0.77109675074650696,0.32172458636544826,-0.16326577827578256,0.1353793648073883,2.5384166274283002,-0.048658413753603434,-0.35846657611232235,-1.1558582559282373,0.36595615916081509,0.12896649166835078,-0.72546300992801394,-0.20439339205984824,1.4181252821636496,-0.97795161792577823,-0.074960865584080522,-0.13781375547698518,-1.1302754259130807,0.46862165061338601,-0.20203522983364816,0.071342219128558176,0.35795794940238679,1.0727425546737026,0.62690092315614343,0.66904318438860577,-2.0060966223333478,0.53265233764916065,-1.2638888665734307,-1.1409229013739219,1.0346505257106708,-1.4917421339358659,-0.02040750272179255,-0.44023187991706886,-1.2961592783996168,0.1559939389005196,0.99911062473967271,1.6114816593168444,-0.87432777198003209,-1.268988587893364,0.96528723630122248,-0.018708784554650127,-0.26232859560997823,-0.14482845455843879,0.78521623998549028,-0.85289349818768434,-0.21421956840918224,-0.21056620402156379,0.54444602408081688,-0.50737360897016548,-0.46055809967018235,-0.31178275469374139,0.03925186610813234,-0.033083786921373148,-0.78664338517432597,-0.80233747277304512,-1.3229925268424167,1.3794304729290052,-0.023946809520955407,2.195348676388261,0.17437412917563319,-0.43038307336170795,-0.54210325973379991,2.401001968659414,1.0160540576594095,-1.6055092345153019,0.63275818623957192,0.71284082041308505,-0.68321232385227515,-0.1357671885450813,1.1917293499630686,0.1373041126571711,0.21274030167266061,0.59156649584023691,-0.16465731080948853,0.71313009044185882,-0.72501391612874744,-1.4056006441601292,-0.24752100309078878,0.086629882368967515,0.22657563147461596,-0.39818792767427924,-0.58664609450826855,0.056393233319645103,-0.093533735961565154,-0.83446827559211434,-0.011257027630462334,-0.14207627234187487,0.58848975047184282,-0.54509752772202125,0.1571459482714769,-0.32028851367024574,0.38837444911622826,-1.7918200629211933,-1.8813944828641607,-0.20563736658237824,0.44562055052883365,-2.3744301392959937,-0.5044099315548296,-2.178391187256207,-0.88311260032597005,1.2503447262344354,1.025883919270048,-0.60368602780763214,1.0219168643962548,-0.78913028198481916,1.5701315214465312,1.3772347429906862,0.24207109483699499,1.0018589713814243,0.061605391751985671,1.4990884434826726,-1.889766685999458,-0.56749702579353534,-0.30452315354712273,-0.19296216288989734,0.25628400414433072,0.71291546307660469,0.041699788774228787,0.63893932229546346,-2.7971885816987259,0.27492450036059213,-1.0925142376112076,0.0051448204077110616,1.1867317606801033,-0.75807015012591628,0.45907027673555062,0.74998111098574483,0.31950522948656168,-0.79711328491158162,1.634121518804996,0.26793889057301212,0.0037194219267785368,1.0622656005344542,-1.2992862356701518,-1.6658576452558826,0.12084620447363723,0.37149465420826611,0.28368717695241052,0.54631504108068107,-0.12608322318999679,1.521999331644813,-0.86616926726206867,-2.2986201152673069,-2.0657832728875132,-0.87897317045593604,-1.0226863439454945,0.27385331618773467,-0.15342549155041466,0.40443527401545004,-1.631240155870102,-0.81922896103233178,0.044584716476604939,0.7572055915344198,-1.1396979342970284,0.82513918852395629,-1.6952930073212091,0.28191711651347656,-0.16322331823915309,1.5735509822034857,-0.51642614378668872,-0.31304748195200127,-1.112912860685074,0.22370282271689559,-1.6763573588163516,-1.580188475259928,-1.2651044554907025,0.30369827578064851,0.88506026390441683,1.6438495649140206,0.24456563465497935,1.1691534404330044,-1.6697510095796795,0.56204136973063934,0.52650710715621396,-0.97704311601976324,0.11005679108769127,0.13905900031176996,0.17967701907026878,0.72334893763341945,-0.60231152380280284,0.63150507418345414,-0.2138359102902514,-0.80121915660600973,-0.48898283942955617,-0.83324516822497008,-0.871178005829921,-0.13783470838221765,0.37985107631119608,0.12115462118306529,0.94842754886028091,1.6081388876839151,-0.37517079854257418,1.4137340044799884,-0.44470389279854045,-0.53083678070327645,-0.082482171655449313,-0.17894729005534291,-0.59454527991110606,-0.20322738925643191,0.30135155679888465,-0.54161937846932873,-0.19070385924478378,-0.75487039645917553,1.1473771368859635,-0.57837015178545848,-0.33092168311663567,-0.09570863957927668,0.24410145927584148,1.1914925151992415,0.12974007214623073,1.4404807808539433,-0.98585540560766749,1.6150171645691251,-0.13667932237017077,0.10769196203444105,-1.0623398326004168,-0.68286064872701246,0.45703004865523222,1.8733388554423454,0.28827063043672413,1.1651145382318693,-0.14322811559215648,-0.53130073557307234,0.055324983868057495,-2.6675575849139732,1.0194187278702542,1.4663743908905889,-0.43622893388365269,0.48262721313177365,0.40450033040691102,0.077655383670894515,0.44134103760451404,0.90824445414815436,0.84201785797586504,-0.74743889613740555,-2.4279110865304583,0.75810239305439009,-1.1674663837330905,-1.5118928105912677,0.99622286842973939,-2.8927416700393742,-0.93606423746922962,-1.9461634567854631,-0.83179159186293805,1.3788071904545682,1.0279760897956969,-0.10076954310909768,-0.36968760446352039,-1.3796458712281736,-0.81871750658103937,-1.194918442807853,0.44910970295789465,0.060546584656101875,0.44152375668694316,-0.060962470292172014,-0.81812323459551917,-1.0940428623599434,-0.48147939355246083,-0.53676221762168608,2.6069782144398888,0.13850713779006754,0.88925846704398237,-0.20110852590284467,-1.7909463549037929,-1.1143167350389176,0.62320909710737316,1.0792738704664089,-0.090979433128360848,-0.049570798163275545,-0.081029755381503379,1.2799319388226928,-0.17034842619575621
0.27786848807175163,0.23246958963881142,0.30675830278685839,1.1108185214098523,0.29393339529715312,0.28608447223447825,0.57939408510289736,1.6276031620809994,-1.3649191254038262,-0.63602624199940216,-0.34506910695458098,1.7210402725067084,-1.5287364574223075,-1.6005313030817361,0.98127087859141815,0.17623767377265406,-0.789587282397893,1.8881555802749108,-1.123537715212269,0.21487336771880275,-0.7650189105182309,-0.60013978982333405,-0.98664169978743099,-0.53581433988715021,0.73534555996944539,1.1000033631278296,0.0058488278332811967,-1.5183671316748584,-1.2665650034542466,1.8878609991022588,0.66848063031521299,0.52752436749248577,0.19985307364475116,1.3401233533201899,0.86028594780613643,1.673312304943084,3.025088492809219,1.2534400706054194,0.87970655853882218,-0.34668663118944493,0.45349804921809633,2.1054197599518569,-1.1243347477756471,0.27571316833113019,-0.58074597106165082,0.69742544916016869,1.1919846161610521,-0.79003559965661785,0.24469003855142524,-1.3438149061658533,-0.11738195262516724,0.61581716745857307,-0.021888574900029718,1.5788516993454647,0.025375842896787244,-0.41697625737938732,-0.43964276616726111,2.0084572379769909,0.88104862199987644,0.92956514582155281,-1.4615444633269874,1.8374836312661877,-0.95951287005836972,-0.12811505022630001,1.7192064934934719,0.44773058429499751,0.088308941635647509,0.84710908745071956,-0.41658023648609743,-1.6424423590276764,-0.2986625413656025,-0.12695432819690439,-0.84545955046098398,-0.76870017973993388,0.44975405996693335,1.1698561323861565,-0.021320785763700171,0.76900030767556149,0.67022227695592484,0.11057915544010798,2.4920931566936035,-0.05766196546003554,-0.37373494189074785,-0.40750775926600624,1.7104252659189834,0.3755836011236578,-1.3742625459914015,0.74961976105790129,0.06290818595935245,0.063266333583680209,0.91269625838513146,-0.21681946655499368,-1.4987377757984941,0.76172761483413176,0.53232603812497747,-0.11365978780509133,0.23488598469358096,0.23137017201631244,1.0733343326963301,-0.18993243559326212,-0.67323677457947617,0.55774993909920201,0.95550771607102469,0.80495417492205035,0.61544454367954016,0.50094862144887242,0.30124174515732749,0.63262025692685286,0.74096550879687784,-1.1525507858899122,1.2286044824960429,-1.6203909972879194,0.62468886622453523,-0.071826869117008585,1.494885799816875,-0.69470431345483186,0.89143512886666632,0.082136083634809107,0.372686944691,-1.2990638260662646,0.13526007992715142,-0.99448314257092985,-1.3212513016251743,0.31393831688498131,0.17905119782088794,-0.17819766074576252,-0.6681045614244483,0.63402115742313647,0.18121993398941522,2.1294431266700897,-0.85665028646660191,-0.00093445659465563112,-0.59000730122051581,-0.3316832555568543,0.48206907465563487,0.59309642999995915,0.89371655055170818,-0.58247153780480176,-0.18721285498257273,0.072678604807263306,0.57408599187544973,-1.0251169201334058,0.1743257698406265,-1.371975047779137,2.4853410737665516,-0.55503503664455855,-0.70002669345911095,0.25803880186594846,0.85705958535704385,-0.18777214956040969,0.41107561216536137,0.13998732156958435,0.54155011644026252,0.47871715280494986,-2.666806603918797,-1.0425464463566119,-0.29082727733676211,1.1732783824800781,-0.1195113009103201,0.2291207909086877,0.72677143959421309,-1.8075100401581636,0.76689297740318119,3.1774637406570894,-0.53201739257675262,-0.46935964211273062,0.61163493093865406,1.6322820542668444,0.53494676425018495,0.16900958661399951,-0.76885542907940363,0.027017922992655947,0.13359039472862233,0.33928420871973375,0.16061275017777252,-1.6307615903110269,-0.70451630724019376,-0.78627055729227935,-1.3989225384335426,0.62960027831151555,-0.25612216330324483,1.0778332308705565,1.1811381335399371,1.5155523431072186,0.40595761073278053,0.44669071660445936,0.27508573640219636,-0.19501966431958914,0.59800235845756922,0.073785825495086665,0.18371484712673813,0.089764900810542406,0.023553864528164565,-1.2871017794635482,-1.1452274515914682,0.68104548768701945,-0.13446759349181478,0.63170327013452954,-1.4607504425746072,-0.49481887546549319,1.8705402269209739,-1.4036958071058514,0.83880792102041268,-1.5729935055710507,-0.38405948749569152,-0.31529426371621694,-0.030319797466696639,0.48861719911575657,0.18941481643241087,1.2171258903357753,-0.064029318641744784,-0.14121211347585319,1.1323007835964352,0.4316725611932169,0.39770216739275344,0.96338433533924306,-0.34911109431397264,1.212308677785676,-0.28144063727478208,1.3286114674172551,0.20451926316150928,-0.28531521772544505,-0.99782349717741203,-0.24246038626492,-1.2355088458221122,-0.75143589328094107,-0.97239086623534843,0.32570444207981841,-0.39957452281468514,-1.539170483469406,-0.27000909238994053,-2.740294394042154,0.68673272411993846,0.19388649896456209,0.64898527611009249,-0.34561939999051666,-1.0002844409559679,0.15144870906234834,0.62470763894723635,-0.87820301000202872,-0.70588069023167821,1.2269410391418101,0.13713847573640095,2.202190997207945,0.044241839768228021,1.3674567965720466,0.33530016816095237,-0.80793009777534686,0.46563681612970653,2.3910172493491477,0.11950538944291104,-0.81097937918318852,0.42343459629666513,0.84729171546505955,-0.017535580724546286,-0.8455499509393225,0.7990529440148898,0.2114983461326414,1.603425195433863,-1.7426436338078712,-1.6110996661797092,1.0069257292119111,0.52222424494466657,1.545806540000334,0.50794992297151031,-1.5712478039641604,-1.5035588589458193,-1.0129888723673484,-0.48020404083304641,-0.27440829167330694,0.96641982615936006,-1.9071210761407558,1.3515050546605232,0.02262376976527488,0.30711573036704953,-1.1885077127958559,0.50912876984394728,-0.66675533280931154,0.059632167444523015,0.81314047347475127,0.31737920351125071,-0.16978342680415912,-1.659495761128398,0.019724613336038446,0.58020926595865263,0.96509801473595469,1.709435155000224,0.63150898598236371,-1.1049622223466617,0.5091236045001859,2.3894123888999372,-0.56887457786740736,-0.4947267978440964,1.1556517457461433,0.016515538696616813,-0.6294276941779785,-0.59859828283462979,0.19576588549346133,1.1491480358441899,-0.57107873645508889,0.19483645217889767,0.28106447552982283,-0.78368696415007189,-1.8933239232295227,2.9101412427457491,-0.41250429795335825,-0.61609562252479833,-1.1603646646923285,-1.5641770124717733,0.75686136888347566,0.12088895503559458,0.98779639843062439,-1.4904673162945408,-3.0018572847889842,0.48502702783573054,-0.074853120485230226,-0.14501294395974768,0.33215951197110832,-0.055036577205595807,-0.79556364744410901,-0.41133032577354534,0.84125642613358154,-0.84414384449189805,0.84701398591574484,-1.8100958165184122,0.12152609194661312,-0.18886699357638123,0.94675305966435142,0.55453006826045459,0.1239543986026566,-0.21993166192896962,0.54679645088863971,0.074215715794768961,-1.478706026493857,0.023806946638455565,0.52658251695078151,0.14250209756103421,-0.37412554852601798,-0.11942820527725667,0.3325502113551338,0.90504215477373784,-0.94724378979666468,0.51410381161624685,-1.471165201792934,-0.10696398960043334,-1.1302745551251436,-0.20899707829893643,0.26868146212091321,-0.2538558818020118,-0.06128723150340764,0.3142375465860025,0.77311508822371922,0.47105863812410709,1.8712047702330337,1.235801547828826,-0.15229355985487372,-0.24423839204247891,-0.28019878829246725,-1.8106365225243639,-1.2511873601359267,-0.93930294193428843,-0.2218602932560319,0.74148955800837579,-0.10921850518359913,-0.67602776436191137,0.51516538273029955,1.1752999531642856,-0.79477949339557352,-0.83384450824324141,-0.30128438599075391,1.8598869939277207,0.25113769107013406,0.25163205281105328,0.11122761725810833,-0.88565973000281695,-1.0818125633459303,-0.80421577230865826,-0.16195422676609583,-1.0910192423201188,-1.2853231424515474,0.20979900428293283,-0.14699420869593738,-0.35022266947624142,-1.3568766272937194,0.35712244613510674,0.27636569245560871,-0.53194418265047583,-1.0588442607677842,-0.64718790112091018,0.7732233015435015,2.6383146671497366,0.62114490650400056,-2.8402500241226512,-1.0836815856236166,0.0078840829758599594,0.067032865273414788,0.24187352429889067,-1.7670029307202435,1.5719179132877172,-1.346312164582901,-1.7228757222867759,0.78402034661298248,0.29114466246060744,-0.3543397831829414,0.62284266773360364,-0.27374058906758847,0.73253365351210886,-1.1894981817985164,1.0266585363982645,-1.0750553974220944,-0.99067977908982685,-0.14779120308812904,0.85478953590002082,-0.36282096716871903,1.0769247540042461,1.5966291707265885,-2.5380784612170895,0.72127634096597459,-0.32140019090069183,0.29008489253730257,-0.052284709207695061,0.83280007009131163,-0.42098470406314425,1.4774407390986957,-1.3087818604127619,-0.10159958866288059,-1.1692945681189795,0.94608416792435857,-0.044062028367546219,-0.67197895316460909,1.694460775052947,1.1341947026023436,-1.5815880591185731,2.6783462702911081,-0.5948151521893017,-0.41231895116004424,0.048535168797108855,0.31294189368867714,-1.7385227923446938,-0.90599782856246058,1.9618219639024168,0.58300757281867666,-0.96318171587396451,0.34501631056191784,0.93147960718104483,-0.5394095245649847,-0.34104749855393507,0.083402338095898712,2.3706850038287341,2.5586511875749132,-0.29700573334115515,-0.57628895267488534,1.4681030942662407,-0.73980595490718681,-0.19040172436429142,1.9876488155068246,0.87109922346895952,1.6528770402427631,0.25684001643050719,-1.128354932867778,-0.078798437658018999,-1.2371564811009594,-0.41881325997198415,-0.84559692649596474,-0.11436439925627299,-2.0825811378322463,-0.95895123288914252,-0.0016248620895973893,-0.32860010548065416,-2.1726973050784908,-2.2957072937153673,0.18749828703453372,0.77669062558886359,-0.48196262437797799,1.2778118836331773,-0.7725252507074829,1.5818290159956638,-1.0859133713001035,1.2474612758036177,-0.44034129106160219,0.2168517680372061,-1.9019553348065057,-0.08264400186724033,-0.16969343818640928,-1.235331645265314,-0.22861819098374209,-1.6740052169774726,0.21156127911761902,-0.44826719697277623,-0.38281053471848553,0.029958909041160751,-0.76024658777366161,-0.87922056257709558,0.51946622452655022,-0.36032233310892514,0.5190308625140444,0.18052931374331352,-1.1475105986431651,-0.67453338440486488,1.5152535141579446
0.29399695910879503,-1.4400248090532481,0.22156071173828132,-0.27036666370380952,-0.91258660589773899,0.31597763155529024,-0.010131586771891578,1.7780989231310877,-0.075818159372784702,2.5272868452281818,-0.2272933688263013,0.86643517434741346,0.25025753807897744,0.83233184963611251,0.59951879610048131,-0.92596790155912245,0.54155168205241977,-0.34714327380847193,0.73242979987286261,-1.021981292879024,0.71376323823830523,-0.41948633539355368,0.41499929566023874,-0.85928857212454723,-0.97167078090796699,0.050170394792178476,1.7153879080433092,0.79130524240479938,-2.645574079216142,0.95847777251509303,-0.22748929226681136,-0.25656769377383787,0.17981211553932985,1.4247537416767577,-0.45931878425812234,-3.2688175417787555,-1.1594713764777087,-1.3024486451346489,-0.46269083989805021,0.14943674388762873,0.90473525606017191,-0.23148365499769605,0.65965421920050205,-1.0171268426909446,-1.0462538997427795,0.12830475844899344,-0.86316708250653751,-0.47897370580515758,-0.32383783531696736,-0.050045466298195222,-0.63239547475404456,1.2831496778439144,-0.49530429233161455,-1.2989161026685971,1.0881311306555987,-0.20953507846377861,1.0932741147602845,0.83588030515829437,-1.139351032944643,0.057651989656130262,1.4561005901586592,1.2984081465250719,0.21402529470616571,-0.21298484566314313,-0.75690223505102883,-1.2307382735351657,-0.97315757571042383,-0.16102875487373539,-0.19997158809585236,-0.25401227580100272,-0.29168848862349339,-0.78148864023177167,-1.4451204895428262,-0.73649362849838362,2.3975217408717264,-0.32597680223348252,1.2437864247165069,1.1144415856682148,0.12541991706929162,-0.0067772208860995102,0.38551803492399023,-2.3045254686881682,0.94708537186285857,-0.40365879964545143,0.72292675934669692,1.5143182434810127,-0.37460646446259421,0.85717985067998193,1.3593133690044543,1.3281769551522633,-1.6557229293962059,-1.0395442472240533,1.0144660966946799,-0.4366699465578241,-0.053879482326468747,1.6967889205590396,-0.71433106876774655,-0.38426064730015885,0.70775727782067721,0.37158301588489356,0.51068313686482314,0.75850869265047116,1.6685365137960204,-2.2280948775572638,0.29778909731462039,1.4366014236204394,0.86166655297590866,1.7875979878225174,-1.0177191336555924,0.24178973978194079,1.6521942928295115,0.265473038486499,0.38709440256909677,1.7705878387248204,-0.8374311385741906,1.2027375576096277,-0.5814938628727756,0.35782296064790231,-0.33366552760682872,-0.30452176929293945,1.176411873017009,-0.54257548722692484,0.36186493293758965,1.3318975823880472,-0.4538855114220619,-2.2195826673356489,-1.513568189660216,0.33432475561407277,-2.1671372053936979,0.80062714387108913,0.55948284047376795,0.91745757782098636,-0.29840341408263993,-0.056984108695273719,1.1568376519859462,0.36938151321258689,0.74617305837537928,0.69481396690673147,0.34714644440384296,0.15219852255821598,0.31194013510477014,1.2062539240734385,-0.70813970869775666,-0.83619430209986279,-0.98560039493155249,1.4348685095574931,-1.241303193164649,1.3229348675038584,1.313742176885307,-1.3227757641900859,-1.2182833456897906,-0.19246588685552166,0.61293553159501446,-1.1055949718274067,-0.66010414822471364,-0.52760580093232079,2.3668138891582617,0.6317082371673246,0.20994643695219353,0.95536561655757657,0.69508302193158367,0.54310914608760552,-1.3233692872860947,0.052895631987644423,0.63970671793332046,1.3455464301490565,0.65276575523513691,-0.6122698130382731,0.32185763547527868,-3.1246527558022841,-0.23644046766687177,0.014719236705451234,-1.3654223513411081,0.34026039762154142,2.5056937395799754,0.24189123176399521,-1.6984310910590237,-0.080294890729734725,0.84095410699318329,1.4767198246703386,-0.40854392082888863,1.3927401518135687,0.26725784036763334,1.082703998968906,-1.2701392056816683,0.93132698911117673,-0.29073158472099292,0.19094646652888392,2.1666127491484461,0.16568351686968938,0.4465091003788646,-0.93501699947402328,-0.2060193121018763,0.20055799934398105,1.8914792277079362,-0.44395874925018081,-0.34063901683827913,1.7823400217240555,-0.21964017292870391,-0.51096495018474686,0.74311455011851257,-1.9963991728078514,-0.61966764090755444,0.14721932272455346,1.7800924782754011,-0.78008645714725622,-0.013408587184873241,1.3332325576506876,-0.71254278185265718,-0.84292580512613025,-0.84291666311648417,-0.8020036205712836,0.94117547498056142,0.47746245511844654,-0.062870809762332433,0.34609755378530382,0.1358485852572287,1.0153855547349981,1.0516271272161368,-1.6462506578236953,0.32741375459349781,-0.10514777376272329,1.3604388644896095,0.82382017738617574,-1.3806158870854135,-0.6512035763988816,-0.16992944464216195,1.8857600654147599,-0.87692652451726005,-0.4192239484937979,1.402269121736228,0.22140650244043042,-0.39479811011279459,2.2553899196358578,-0.019609694370607722,-0.30995183818957533,0.74070058700223018,0.42234704318456839,1.7712932137882602,-0.72147588690023223,-1.1677014180196694,0.0068965722215420409,0.83523682762904794,0.53506851541553169,1.707202489725115,-1.3620257009007748,1.2614752249000329,0.78764054084051704,-0.44462654516583594,-0.67084280426417098,1.2280274541950726,0.67935748127683615,0.8559735633927672,0.094458954161546732,-0.071837101936927383,-0.81696328054033618,-0.3030229667320592,-1.3673773706362049,0.04995584517805414,-1.797271432111486,0.2687191562693873,1.0701271496065501,0.27503142491916488,2.278629034788902,1.3608519022338543,0.46116593670185579,0.12618072936647681,-0.3711305104951963,0.10930904980157873,0.2558590858990899,-1.0551259168384459,-0.8504972336231269,1.5261746201537614,-0.22867438743708732,-0.1059809465144471,-0.33776288352840922,-0.83653237270853587,-1.2870098759488342,0.12774350748884616,0.87135168865709778,0.041939312877040356,1.1069783937208983,0.27884089226154357,1.591896578568059,-0.71909244470504452,0.32778100356222506,0.083942376010207237,-0.20077678580632916,0.085312187779667079,-0.60946960432190012,0.24506467310274618,1.8089302127076978,0.22857764235858896,-0.74875170313217987,-0.56845680702957568,0.1717535596733914,0.28298813159670844,-0.46582486573191378,0.16853519123495433,-0.31807347795584495,-1.0945922008522673,0.54584771032325974,-1.530389954772748,0.4643613986785749,0.35449914710101049,0.61398088259183181,-0.55988258055836759,1.0312614301115988,-0.0055516409886230298,1.1075239152958858,0.97753080065856734,0.55095715709606485,-0.75973653731029456,0.81463186580424285,-0.36978160124576925,-0.56793437475335384,-0.68276837272037116,0.10304787199534413,0.13861877893800045,-1.1031073040741013,0.014425600149288136,0.02588322849610224,-1.4397676267255453,1.8577979173241117,0.73479879007536686,-0.54327320467109019,-1.1534291607928495,-0.37170763857566008,-0.84609606428611606,-0.25633894146172376,-0.42056073018894891,-2.0943987064693674,-0.71944802969906085,-0.38512840359170802,0.51264885004587457,0.0046223199624631254,-0.21680867728321074,-2.0812449784753042,-0.12462819278224722,-0.42203104349322146,0.70433091216021049,-0.61571877177119394,0.83897762957920918,-1.4646729199346391,0.73837971110202127,1.0562607112833124,-1.3687268636231018,0.083818225741964583,0.56057150158672475,-1.4895171066976634,-1.3081600494952814,0.13102363278324225,0.293782881010341,1.0906975414180642,-0.51734236189246352,1.2317823449327063,1.2954824445630784,-0.94022027066471225,0.22013285301223351,0.10567990543329517,0.071669620862386971,0.55438809454860172,1.1214986599091699,-1.8859469734891485,-0.72654038127938858,-0.57614329267619868,-0.52835516902628132,1.386266095683546,-1.0962967662425258,2.3070906178978303,1.8377350064156637,1.555411096095175,0.82273257697103286,0.30838870702166776,-2.0808069416829382,0.64789089721676196,-0.55128333920767325,-0.83183223916992988,0.43958252586139018,-0.37414207141707678,-0.52417517564484295,1.780967126827538,0.4901775123784553,0.59841232872786276,-1.0620733203781567,0.04312795226595656,-0.51131054907584805,-0.97773386440886245,0.25983463403169943,0.12310814024294785,0.45031724860641048,-0.43656754565546807,2.4540313358910257,0.15977630008023055,-0.19760272884894897,-0.91055213302296945,-0.2436019475955698,0.64333789781928141,-0.78698196479362537,-0.045381613634453769,-0.33140557204712201,-1.5735801034731642,0.074219587692016059,0.10022284729792209,1.4459884589134344,0.24435598800942343,-0.22794433229534425,-0.82166799470748397,-0.54074079649909057,-0.25221204096199479,0.06030885311565215,1.2924426123081403,-0.67135891697212102,2.709129115968115,0.48846235342536776,0.095722857118239094,-2.4462963081711555,-0.7138161717450886,1.3281897330318753,-1.7204212109317489,-0.43603632787647673,0.65383541632535924,-1.9543317893527845,0.69366909013427558,0.74899195461609358,0.55741955094629159,1.0012432926304251,-1.314472462722492,-0.16482143955951484,-1.6017654848161751,-0.85058986728977359,0.51045334790095143,-0.54684844123134035,0.4753638386775757,-1.216260305572292,-2.078852046806491,-0.63094721976045698,2.2887586410541347,-0.19642746527304994,-1.0038456743279636,0.41561929978452161,-3.1384702167332845,-0.72486503996366958,-0.25572993916007952,1.4259638688694263,0.99071202178479179,-0.02364170600768516,1.3867428465210814,0.44089008746971192,1.0397350552639939,0.52810932392950061,0.37337043390460034,-2.664791873016481,-1.3917014181783611,-0.091164047987986219,1.5014141820820979,-0.12327271830749773,-0.60629338406936417,-1.2178401054927332,0.75740397801974857,0.56760278744502712,-0.77947676859893955,-2.3582662144784861,0.83308736879176781,0.057754527903726052,0.33401984824727327,0.1837888106150927,-0.35097119107533514,0.91681539897545372,-0.32321660953869885,-0.93600528872930255,-0.19193572023907737,-0.38464866324069902,-0.12211271785430539,0.53004620996139806,0.24809698815237469,-0.99622146860029948,-0.15089555354482159,-1.4067542140984148,0.050729069414431505,0.56218604610806933,-0.31720751354304516,-0.59617609784053738,-1.2708180794263857,-0.31372388931444534,-0.53858170408353057,-0.70363007485756968,-0.14223191558925533,0.72159954510464852,-0.48691492542806297,-1.5548975128883213,1.0044222073378821,-1.0166038342338435,2.5962476588505981,-0.0082427953216273019,-0.21655137543359221,-1.9911626749927038,-0.034013719078014516,-0.71041049161357395,1.5770282440350654
-0.28613894046773491,1.0122649642930943,-1.4034639958566304,-0.57791780828567962,-0.28165049252620283,0.07447132411673478,1.1119597223960944,-1.5766395057953166,0.38243709141568966,1.4189900866559528,1.6864264899085333,0.21187013297965068,-0.37645485669125517,-0.59285799555498642,1.7102770591278418,0.72649767661616849,1.6280044366980195,1.0049228362410427,-0.30157539194077243,3.0844213954857023,-0.93963357071294251,2.0262270932689637,-0.77724757713339676,-1.6129051143881836,0.69961751658659566,-0.11730643185547596,-0.66877384292859388,-0.27264762780781493,-0.91738431390661979,-0.005957794861439129,1.0410447551758348,0.33522217012912142,0.9020368274279088,-1.3702845208190075,-0.84905463715032548,0.92568017755706977,0.48965333860182803,-1.1739690447126918,-0.023971096532147046,0.63261409036595551,0.64979239566784119,-0.25362556680414966,-0.26425914533043476,-1.319767507712913,-0.10753568109812635,1.6531032846226072,0.97078293554135608,-0.11373368334608078,1.4847474937422482,-0.39680346526613947,1.9416726223486844,-0.058714247470594276,0.082738582447207457,1.782691763598103,-1.6520249905850686,1.807744400799626,-0.3517871329833489,-0.65182519414411222,1.0776452308742246,0.80415053815476356,0.0055232373625833707,0.73880495005181057,1.5571683673547216,1.3141408009884681,-0.90835180796877346,1.6326556038564046,0.63781984544491677,0.17612488051172745,1.396853405728387,-0.14799821030788204,-1.1335274233161927,1.3053355091827532,-1.3932636504672911,0.98419481179126789,1.0807061395639848,1.5563058512129029,-0.76826915198563916,-0.76768346961896661,-0.0025983646379977,-0.42988458874773228,0.40316721178503506,-1.5889983744088845,1.0991150998583279,0.49409675297199601,-0.30598687801597219,-0.62948880412953245,0.36428248646213823,-0.88091731477372448,-1.3479550838366692,0.18722668507539966,0.84127044880749724,-1.1783252948193701,-1.1939341305800535,1.8177952720429094,-0.22092169934866251,-0.96645342116170618,-1.8742201823996871,-0.52077041774797328,-0.27527066826455387,0.44564314638587765,0.97063246953264082,0.65993441983639456,-0.61748153305903408,0.69044499069316301,0.65898417906091766,0.52998829140538706,-1.2637811333058571,0.52041004243980615,-1.624417689304821,1.0550171111816471,0.52717257131484796,1.7938705954288154,-0.17436967979342313,-0.51146804313370675,0.011866223565024236,-1.1892087733270105,-2.0325514572905994,0.87775145787292208,0.0293025225966475,0.71429249507170933,0.025000891495425132,1.6673738830619622,0.49785522785947151,-0.4912859362242421,1.3889284627085894,0.44474445699010656,-0.48225127506020865,-0.93659759941710174,1.2907049727626492,-0.27506791042296452,0.85759122988557723,-0.95185279419107194,-0.7364530301282225,-0.43608933511536696,-0.5148905899250239,-0.43521330409630216,-0.61251897046379111,1.5835110294701511,-1.3130861013906328,0.70501425780548832,-1.2288850626414309,-1.0860748908531095,-1.1430082158713077,1.4534957804419142,0.17162804111595664,1.8547652934034173,0.40019321666575391,0.67323747982084048,1.6609591472894083,0.48598825441124927,0.66101373450993617,0.11117816982051849,-0.75548673329813509,-0.10651900436309324,-1.0488962871984466,1.4381394888677861,0.34796224906516782,-0.69281489358921378,1.6257768902689684,1.269829016703949,-1.9327394681692771,-0.85655862937839233,-0.2236636172571069,-0.24969082090130304,-1.3787558448875692,0.98777907405053977,0.025999262420520051,0.55178793202135856,0.79504007636917151,-1.1860984808264563,0.96945169471597192,-0.49255797645291277,0.50451802450951555,-0.13157814587688416,0.46496202039564333,0.16824067826904757,-0.04279449505890863,-0.50482642974234759,-0.13341992982898432,0.45432965031158934,1.1673615409259712,-1.2831734122782816,0.17472111302663543,-0.83682328116919225,0.78939346093699214,1.5577855189967977,1.0751120448050981,-0.32715144406904567,-1.6881403980452314,-2.0858903872196701,-0.39093020831679137,1.7252040914607802,-1.0463253285967864,1.7015494485790987,-0.79437381628537596,1.1996982867064492,0.2315227639506546,-0.67347896495956905,-0.50296758482953685,-0.78971134431007006,1.702174586804849,-0.82752431166476426,2.0933967096713388,0.69991675312459856,0.93331842203828697,1.0364098939049065,-0.77487116465041528,2.2453530528158878,1.4186544396144842,1.6280710784939094,-0.38271135088102665,0.4233415591876637,1.3791860751555238,0.4625804705320144,0.60356094802252236,-0.2870372864337416,-1.8192944519467562,-0.63657364888340673,-0.61675993749563085,-1.1495170078016672,1.5724210668982441,-1.7957675037259209,0.10919207338383186,-1.1033842585656972,-1.3365978117967776,1.2169698775901734,0.80353412251856193,1.2120618778988888,0.12671001516365252,-0.2574997059611856,-0.67478773059658781,0.34581087494151108,-0.75829560137091812,-0.81825529672011055,1.1877859754536479,-1.567503325542724,-1.2855161968090527,-0.94374293708949775,0.84662853854151388,-0.088328280235595025,-0.70603679357786264,-0.16397091046806977,-2.0183314029043342,0.020782328600581542,-0.32938732230696455,0.06925132476507255,-0.085113594422813535,-0.92523226307737039,-0.35607276798250259,0.56296005723408338,1.6120097913686122,-0.82550013298615632,1.6806919997946079,1.6222638333987622,-0.50651735741945525,0.96836721268428805,-0.47688225166746656,0.94616087536226956,-0.14802120765550833,-0.29220402533180323,1.2125784788894423,-0.48408329240110803,1.8903730548359974,-0.031083364251595292,1.5345486460251636,1.1375497424576948,-1.8813059601985223,0.51950484019704812,-0.55857806075561223,-0.1888870397093089,0.27191836290903071,-0.8310800479882654,0.40299971639061255,1.4990138435651392,-1.7114809664517228,1.421008738668518,-0.3818854145279898,0.51340607597867693,-0.79277059090089985,-0.66667852517597026,1.2213524106156701,0.1259857686743312,-0.021857303734507619,0.90114271765320419,0.82248897362270945,0.64499523080488896,-0.4010181725380273,0.82426234165929213,1.0813679721703777,-0.83049666005186962,0.18839429940221805,0.39487005655748325,-0.035173881543554518,-0.19918197781961405,0.46800659658812355,1.3252090281864142,0.1824653492304314,0.40321695691941678,-1.3029776550680761,-0.1690874840232611,0.89304222117190513,0.74953994376137112,0.53947214575102254,0.27230228418080232,-0.57108374225843817,0.13043916676963688,1.1352939654597232,0.22890305967527322,-0.54529287048296227,-0.81872577049057238,-0.92742858631441683,0.45158102974436776,-0.96899358360117416,0.39218706472568426,0.36321488946552605,1.2111903338198733,1.941645097029796,1.2382392752985503,-1.0449694301958319,-0.11232853641218224,-0.5282534870295047,-0.26294603274622586,0.047484394953376904,0.10477436505169659,1.201998009066984,0.66049649275373779,0.53299199547002607,-1.2732226928128407,-0.77304701851076707,0.33409976831213911,-0.42751047495563949,0.36747571870208373,0.61912187001445507,0.86949694834433522,0.329860250064757,0.30336638626889717,0.07372476365990184,-0.70465811060809147,-0.26659887934615295,1.7225837972349727,2.3497978893688698,-1.4275803955180546,1.5199000627730135,0.35312553161871296,-0.35814095127561046,0.1997241399713893,-0.61411720552693727,0.76739798727000552,1.4157018310357681,0.23280528411745693,0.85374852698177472,1.1343045420494624,-1.5102720688280598,1.2453372243183531,0.76429465372439764,-0.38911617372824076,-1.1256777129288864,1.2944173063127835,2.5584432273295792,1.3235662205433114,-0.56106554158043576,-0.78440087094406064,0.69885505661202407,0.31465608975515114,-0.57992047893566445,0.94928351857277427,1.1600779042779441,0.066205152859353772,1.4607750567276816,-0.8641722193296355,-0.99611357086046881,0.3966828110777107,0.83693564317441171,-1.6458005077976225,-1.1043566850894071,-1.2863237266249579,-0.1783075195282201,0.35156059303522808,1.11756057690315,-1.7952154291148898,1.5325116982360212,-1.5692700812928,-0.76969305506906061,-1.5163706595091726,1.5089638802221776,-0.82127582698129908,-0.60651910024839406,-1.2138152260924275,-0.40842866735421268,0.22130978071338711,2.2309957326387537,0.041644687142090908,-1.2351266346520744,-0.32777831668722135,-0.56457801137585839,-0.32774030251678243,-0.23137457748417356,1.9026611227283894,0.99223030512227139,0.25722906943532281,0.23798938036774392,-0.42956800006248103,0.16975432913816157,-1.3735576486916623,-0.76367806419975737,-0.10167690128559717,-1.3541891321012542,0.91531082048879231,0.53922872584623616,2.0124895490983166,0.85975790273418562,0.097760193124772687,-0.34043228273864168,0.76087092674761603,-0.40663527023638535,0.55019791548511021,-0.28457190729147058,-0.47050008809586658,0.13213872171211566,0.61958285513624101,-1.0272458991335525,-0.15692195898978364,0.6228941090503789,-0.71688581074812618,0.045231783329744618,1.0170995639918461,0.6429142590952015,-0.60156268695711601,-0.48915640740049099,1.4464578200737797,0.42322793618909849,-0.66863957121493756,-0.10837287488566734,-0.11043255558033828,-0.78796630696430958,-0.20804292991098605,0.13426402427333339,0.064451595155197175,0.028787281447267492,0.67571061329501458,0.3540479120721291,-0.90145174313296972,0.10926576607188224,-0.21223744201644948,-0.25513105128684976,0.62356879084753336,-0.34205788530649256,0.85884052641669906,1.137609045729598,-2.0324170300534385,-0.072213226898062255,-0.35946207165021532,-0.16638459369200989,0.59464397633392163,-0.044041274540335199,1.1917604173966212,0.11789334234527092,0.96100572908677406,0.73361988925723653,-0.9126196979397454,0.43362715209298947,0.95590267276678842,-0.478626323183374,-0.31881761718474588,-1.1169100099743692,0.40057403107629919,-1.0951118377320976,-1.1136361606703402,-0.30242743824899038,-0.66765439561213458,1.4731280053632694,0.53440308408297554,-1.6457911639700931,-1.7112794765277042,1.4954208367657937,-1.5511925223018104,0.31238503763218284,-1.9617343970096592,-0.49176378784777292,0.097186291114306281,1.2013221457641494,0.40338903268862919,-0.63959791216202688,0.85736123928660213,-0.51061619762602983,-1.6871404437859694,1.1428488193300606,-2.2804562520989267,0.77642509359701084,0.72982845890002745,0.03865171407824057,-0.026523787052992718,-0.38257596034168662,0.30725674675218295,0.25173582123015997,-1.5274743961796748,1.3065781918368027,-0.58585502822598445,-0.62446791445077199,-0.57837840011747876
-2.0575295713415347,0.30899087179704765,0.46571268539487021,0.42577401572990098,0.64917141315642723,1.8142033484738922,-0.96692586386685742,1.0074756978701864,-0.67158015800517989,0.40557347987270181,1.7469157124935537,-0.41445980275563377,-1.3783257864887151,0.24848992402174294,-1.0100470144797262,-0.91181061499910687,-0.54019859912161983,-0.32243574087654081,-0.39052602225459321,-0.99560314135481065,-2.650203099940744,1.4241029551420801,-1.588056701229464,-0.24745652305973112,-0.53876491086701217,-0.68204638290775954,-0.71754205543297522,-0.29253533996248587,1.881458073814543,-1.4973904116259515,-0.65094137089087012,-0.96655924919078318,1.1900972015038913,0.68046636146762718,-0.1440043148235588,0.82640658003226031,2.2263511473567097,1.0100371402094246,-1.5471056975186044,-1.622344850655294,-0.30906230730295836,-1.4616158181979146,0.34290760545153448,-0.27719381968503976,-0.29566711429960024,-1.0554672951862751,-1.2868847225660118,-0.90330779189342192,-1.0784867503463904,0.3771851515672246,-1.9768230756828888,0.16776232094890103,1.7335182539453868,1.4304521471019824,0.78893019370931405,-0.46837403085805329,2.9195481859756751,1.5872699476813152,0.30140956775585631,1.1361079061212562,-1.5160290802738117,1.790118021085187,-0.62838639423535858,0.69266714716687183,-0.19878175777828483,1.5178339531017166,-0.85379832579862169,-0.090274685620703843,1.6613559212714273,0.99505296797680765,-0.79221326625385213,-1.070111849607267,-0.80148251950522764,0.40873076711163886,0.92714015095621138,-0.45494421530116708,0.47260350184263922,-1.4096675739585147,1.1168232153212003,-1.0734444586888072,-0.54453373674467187,-1.1451834415814268,0.11860828994187896,-0.39184399789539026,-0.21264077012488328,0.35883991487410338,0.97805389058026559,1.484150076822619,0.55242493126242675,-0.19317933808027213,1.8227862966243531,-0.28059932629685963,2.2734134398985462,0.71306651122599451,-0.98579887656683285,0.2841802163560429,0.4163656413136439,0.49766707393552984,-0.68209368501051959,0.91435647145957322,1.5983854002711191,0.53139552091446596,0.52626831131391771,-1.8655358351804834,-1.6845780208536534,1.0346663893016921,0.36274684804634499,1.3337952393185939,-0.69659659748427627,2.091315135899479,-0.086879981561027067,0.23932692864181493,-1.5525512011202309,-1.870838748660212,1.5423965743442649,-0.45307869285743468,0.39659436808366966,1.7380897745439376,0.034349772170174937,1.4668542305268486,-0.99350363236867956,-1.9350063203162606,-1.8238792781028967,0.38804155172516053,-0.24177715705401825,0.60030381194660409,0.15978262495281476,0.28984339094032169,-2.0280352852154104,-1.2878465609952356,-0.99002203886212381,0.76051351661863487,-0.44700799465717467,0.38943851614740765,0.74470166067667709,-0.077537907159372796,0.29366105244591878,-1.7338365709428925,-0.1351183054062006,-0.29069063948808299,0.40226629709421996,0.35561356460553312,0.19973688866861852,1.0667606433602486,-0.62835275993617701,1.3360070337401253,-2.0670417879391265,0.85842205160202389,-0.14015818265950108,-0.24505185984597541,-0.059125906574786252,-0.40072551523513283,0.8092182575660315,1.7135264722692192,-0.92656500765483973,-0.89531930607015087,-1.2266800161058256,1.841124151856792,2.1440193558399998,0.77504192114802639,1.5293679631672648,0.2357316774887355,0.6695269695019237,-0.94051697706316473,1.9698589810616598,0.55027619070528488,-2.4810152104980139,-1.2981454604712821,0.044431343365597696,-1.5427759444546041,-0.44948843301353747,0.81934245986100074,0.4713113906770896,0.6577237060260166,-0.62789274215761326,0.31661091782655948,-0.86049698882274106,-0.53640614655634666,-0.50592606927430384,-0.024552611094453301,-2.2695734615292289,-0.30073437404898884,0.41688819621313061,-2.1582905026313663,-0.34210759238213445,-1.3885791635093621,-0.49281611666752306,1.5684874770134278,0.78929532665357005,-2.4171621763231368,0.72385714840691873,1.0171503737928116,0.33330929524093517,-0.21809558040859128,-1.2954123174766301,-1.6707796308984015,-0.16780683188225803,-1.0652108951347177,0.34104787860645219,0.68111969207402312,0.68872969946676277,-0.81230060389084069,-0.89133207642974321,1.1438633808946908,-0.10583026076929856,0.2136980373007423,2.0569794839931279,0.67708137461426987,1.4957144294274969,-0.38616630716358247,0.41120308987821541,1.1475534568210692,-0.2976625832208955,0.35367731684800341,1.1086820712274443,-0.27338284968397752,1.0747402000271518,-0.54783399530251931,-0.37156952458778558,1.0611499020741604,-0.49409400603470932,0.08555514861858797,-2.0273644014437235,0.81892731618258685,1.83554074970893,-0.17099236029719345,-1.8278000282367506,1.4784684918498334,-0.045199923143802244,-1.7834098991809599,1.1460020438878693,1.310777284670102,0.51606069968285462,0.97953539046995663,1.3192045368861971,-0.58093506994032751,0.43553929508323591,-0.3459520163923781,0.06825987145815085,-0.58970602905275882,-0.067414975458433932,1.6923739270660942,0.49692788208819055,1.7992284381618828,-1.6889877357521046,0.73588176875219358,-0.14678011273471472,-1.1190045020965083,-0.53900509055628776,0.061051956329395064,-0.43620643423060634,-1.3287233999024053,-0.77359578572298948,0.88915824272046184,0.45859011310525816,0.89167758514775619,-0.005730989721666465,-1.1743543176386912,-1.0737123029985478,-1.3273986976562773,0.10811636680269554,1.2671109136449168,1.1363844529695761,0.387714203869512,0.080484624828869603,0.25717805639453634,0.71352651993909566,0.015886705407904746,-0.1313743357332896,-0.84504555891092858,1.0592803414958367,-1.1626780382024571,-1.6492017481350723,-0.49582094070137556,-0.49750559235632275,1.1918842220880308,0.21207920991006432,2.0288343120803045,-0.020952651012813715,0.42638663594807341,-0.13016192345021332,1.017521176776278,0.13702283523869696,-0.91854574385566012,-0.65999652668066022,1.0246820002495689,-1.3152526295677891,-1.034274906427332,0.48227800618065264,2.4580267439254664,-0.3148882525972328,-1.9251987439311518,-1.5242339747974079,-1.1362993828110957,-0.59716254188664808,0.27805132422508361,-0.58404023865089127,0.23885752356476492,0.51353737953021916,1.0201729730651257,0.80701932724563807,-1.6029777686560576,-0.035029190017208597,-1.3397758327830747,1.4879582982130457,0.95642016551202125,1.299358881699167,1.0432003851549174,0.072068830128224862,0.051724286468347758,-0.62914187643485497,-0.38162097398910105,0.36229117811513406,-0.46197041037601172,0.49532351051209689,-1.2803680096479191,-0.33448054201775185,-0.3527324040003878,-0.7847038092535924,0.7559180483927096,0.96794247433386138,0.28218718214083127,-0.073571764505210843,-0.44521868632281764,0.92448779270377734,1.5472460608238923,-0.82766977368665173,0.82570926113698795,-0.15902451155885033,1.0138636350464403,-0.11357684159244993,0.28426010873560653,-0.93941648580234771,0.13089664361242134,-0.51607195365796155,0.64696881856671684,2.0751884244565026,-0.55843447249123468,-0.078515224775840234,-0.19333282943860411,0.44176015150971532,2.5496789423408255,-0.74692626289656505,-0.33985842016552198,0.15093005932179385,-0.14370975251327273,0.58486193328418745,0.17332494362312123,1.8198675577696917,-0.27438396300807349,0.045222607898348317,-0.57029979763653238,1.047460311984137,0.39994769108972916,-0.065384821235277071,-0.80161857890805888,0.11447812689874534,-0.18632700752524256,0.43387342455887179,-0.22969681514122903,1.2419160387119945,-1.1815420907280314,0.42087209928751368,-0.2446291728854898,0.14756504589899475,0.80813601408956603,0.52123953768543985,0.0092016785638935634,0.17896881180677393,-0.079701314055976025,1.5556751558843822,0.032308935574309035,1.3200837807217338,0.6491121820760809,0.88146064886673503,-0.70279698463779938,-1.6225847440426779,0.81632149502952633,-0.31943606734584357,-1.0477347284873111,0.53840968843452375,-0.29896518784870058,0.42638087700226934,-1.7616861710308083,1.123134974196331,-0.23290730586621505,1.1628261271535822,-0.082285643788169771,1.3765555083984753,-0.67431627912538983,1.6451240624646655,-1.1360594539818889,1.5074077302018714,0.53694375859728316,-0.71125577190658429,-0.081510572284887103,-0.16512542215954265,-0.24646827305061875,-1.4372157888576824,1.1101588299775578,1.8247028520558561,-1.3190916435308706,-0.53614092122865098,-1.5461795231175213,-0.89631162568753409,-1.2724643912790059,-0.167490883217182,1.5729015660449348,-1.4346993503391596,-1.6975739989899983,0.56178265339004063,-1.4253922342780982,-0.24799560267410484,-0.011421022319091806,0.023851447484859435,-2.0671924379382789,0.75782958939385425,1.2768435938108524,-1.2894590530146173,-1.342851075056203,-0.5630105576537624,1.5369923969644432,0.031670023594116553,0.065196268781490888,0.98140117387911019,-0.52268904536693972,-0.72503139111062909,0.14289431002384806,-0.81952969491626892,-0.17494884673228997,1.8011858776782663,-0.31649813742504723,0.87159698277462128,-1.4773655463846718,2.1522489158454348,0.90436681748263681,-1.9221603424773182,-0.46346134414064749,-0.75792538088696704,0.51960264600190942,-0.55706624742332311,0.46822803372017757,-0.65313705508877262,-0.05325275455540316,-0.12732448757101786,-0.49921628719369221,-0.34237612801250039,0.57156440246142981,-1.0731426440886211,-0.44754230089953712,1.069775571501844,-0.40079013330221391,2.2850064834912467,-0.55730013485485574,-1.5157895929876797,0.17895549966435606,-1.5640083300024445,-0.18278718409414926,0.88813825093256127,-0.32507198788615171,-0.67465646311085758,1.4526224704346373,0.60662960659286924,0.38397860793319399,-1.4503233631294805,-0.058807717809306138,-0.33452067575529232,-0.50224980282435561,1.612156511540769,0.53708673404379903,-1.1246567615289915,-0.937491102023012,-0.21611033922286663,0.82900220841936045,-0.93698863882446537,0.13748919469193252,0.061500349223094629,-0.49517977933229013,0.077139457088616692,1.7048407980757665,-1.8923873748314024,-1.2555733182542974,1.2761389261810143,0.51282898608131255,-0.0627408512014484,-0.50720273439018504,-0.30940606550229227,0.10723805914577221,0.65775692421234389,-0.36739257593339125,0.23164673828316068,0.71236876929622961,-0.95146845064058461,-0.73323820625514768,0.34455479115129278,0.31180761631977738,1.7932281011371547,-1.0896402362427127,0.55806739674359906,0.098828720201673312
0.36529254802777172,-0.67794571575535845,-0.20071423891116727,-1.1837551060917844,-0.90205972644271393,-0.49410403674084374,0.018582314631758006,1.6446513629006618,0.42620038624634493,-0.42730240106288181,-1.0504833332942578,0.9132666300637915,1.0425952312728624,0.9347610257565625,-1.0558338415679429,0.8713145852292975,0.81788562752094585,1.2244449845833525,-0.72806583213510212,-0.46132558360101994,1.0481945023804946,-0.29271937802163578,-1.3914797284338922,1.4267403764907549,0.6970413897507336,0.83258887483343791,0.19863637588636174,-0.50577775532301394,-0.24086889475217271,0.4543157613447939,-0.45854842192992323,0.21356062961217451,0.61086773429161345,-0.65733166980920099,1.0346167843931919,0.33225332098375937,-0.4708258750249219,1.3894394368694296,-2.3945634266264215,0.85516971113463591,1.2769884141116288,1.0202789656380833,-0.9667504927085524,-0.24296730011152906,-0.051655789093199844,1.2680037151676853,-0.55006227294669385,0.14134780501339572,0.510538446624071,0.63396503359175893,-0.95763666329104791,-0.19085147691356316,1.092347585070885,0.70688744505735079,-0.93688894512398047,0.50977078422253541,-0.6245327334041022,0.42081640333709502,1.1935950617415296,0.96367614424747106,1.4163477355737628,0.099640167601693419,-0.39455975690052214,-0.17616390595452905,-0.34625774425017652,0.092983223311125685,1.3605165259131149,-1.6587338009244503,-0.40801388552405055,1.5808614925124742,0.023645481528032527,-1.0077302661133414,0.34148824400203048,0.34725879060804477,-1.99650562028275,-0.13291506626342106,-0.48236029388755042,-0.63501004907977521,-0.056330476661791057,-0.80993702421800917,1.6824761584814232,0.24259639119852378,-0.55898668120020079,0.047959811650750896,0.85145638852298866,1.1049096403915082,0.65491667922857433,0.063681062499878732,-0.12765858645265774,1.2099705425764702,0.23525834845481866,0.81504610029476265,0.69346834133502422,-0.23300252324849441,2.3137867064498439,0.087213202855802655,1.819683051193788,0.36565761862156321,1.6920395277054561,1.9273218226232265,-0.72814728379622573,1.0631925064435144,-0.41565992744439573,0.32741050734520155,0.10219554640511118,1.5327787563892781,1.3981763930302999,-0.86904282709199299,1.722769103037973,-0.45703616071260694,1.1409660342644448,0.8875235155297021,-0.25047532985931364,0.70981314229302672,1.7910199679447554,0.63081532934393147,-0.20192299936113733,-1.1204548070858467,-0.36527114594245796,-0.90117706704582046,0.93124872057933072,-0.24967520316029934,-0.80320487879929492,0.24984949966751141,-0.71656120767798992,-1.377075902271276,0.66812041834769909,1.1569382819662173,0.28963105442306436,-0.10805317563000902,0.31528510827101164,1.6097802381081676,0.055619292490050341,-0.71115470742948805,-0.41326237588817533,1.360981163026951,-1.2855455395352089,0.39702568844923203,-1.1082877219215754,2.0073227634314672,-0.36700524931114514,-1.0001545284834654,-0.21081110375783757,0.90211643737911784,-0.9507902600615723,-0.066754149530722312,0.32691837206032381,-0.75856193986584575,-0.25066392019303541,0.32141998059491023,1.9028707553164552,0.0055523454797666138,-0.24296974149035733,-1.7167389691364081,2.325413963535139,-1.4305999650676646,1.4140239108274313,0.30765956467344935,1.6189073750255074,-2.0579455147191514,0.72677740585550965,-0.55296689025278889,0.24527723065939008,1.1663099937358479,1.9644693645293183,0.37930138820574955,2.6625411097378215,-0.24677191869653134,0.46634197760525642,-1.151152365738487,-1.2246525389423952,2.1704439788974614,-2.2553562729465928,0.41862101381935846,0.2930058309699512,-0.21040859223777547,-0.34643593616625029,0.48599122407988876,-1.2664773687508728,-1.0244376702445606,1.5200603355044942,-0.051969120260897596,-0.25614734400262557,0.71969288806358556,-0.85568169569707286,1.3037529741696123,-0.23323058906189026,0.72135891219332093,-0.88032594091194216,0.32841096441717194,-1.7842285097279524,-0.090311917170236081,0.86975427893915347,-0.41647332213196048,-1.7790587572571261,-1.1420113994470744,-0.4588099239315192,0.19882883491913964,-0.55855581368250085,0.16462007059067624,-0.83203997485416681,1.9188490591382337,-1.0067211243722418,0.83580043975210672,-0.35865454035145922,-0.13781121160046456,-0.69195705842132371,1.1334740962295342,0.22062338853295177,0.78598617596868214,0.49826795082988945,-0.18038491208967258,-1.2733959357569775,1.7113110625257415,-0.63906708161367831,0.74167678958542183,0.96898567322265661,1.2008166120897428,1.5582330612961373,-0.59233726306274648,1.1392398807235402,-0.28979363149202142,-0.83184367803371739,0.46958791696156271,0.2788070262267987,-1.7400814314888107,-0.30651593718794606,0.073618377882916086,0.12152998616188534,-0.51784082093220185,-0.86047858049612425,-0.1314031130996145,-0.64328830811804527,-0.52071414173357111,0.23817805633471895,0.43061004916497841,-0.54560377916271885,0.89067161601164535,0.68167519358552142,-1.0191106562924583,-0.83775794766903511,0.7639441613324528,-0.088071368646742532,2.0117057382224743,-1.480314222951419,0.19407225892971064,-0.070871923069778908,-1.0112781288801147,-0.495716356177963,1.4100787752172261,0.29633948817294481,-0.58003655052174996,-0.32371254113517034,-0.39301557740479642,-0.49082406058743056,-0.41603285571424814,0.19049732446490314,-1.8226904446032399,0.56438514909728921,-0.093848482701422889,0.57775914876354895,0.26852307511871865,-0.22440898586283234,-1.0712934316070715,-0.0075322290693012849,-1.6771665098869684,-0.27426018762521914,0.18013849362874759,-1.253914362412643,-0.13375163133633194,0.70840823728795188,0.018064077880012634,1.1391855486409024,1.197877699789204,-1.066138567987023,0.83021483551370423,-1.4390323406026959,0.3930711410069111,0.76296602106962785,-0.81574425991206134,0.64765039043655204,-0.46323849658218119,1.5127829760752542,-0.73878819347591529,-0.50253491763667857,-0.24575958056242822,-0.84818959074889921,-0.53542146027621917,-0.62244168233317498,1.3643922028218047,-1.3883831029442975,0.49755826743268466,0.3831913629440496,1.2966711485155149,-0.088021520525267516,-1.0541631948580372,0.41996728704415087,-0.22924382360755824,-0.51332636166428292,0.72066041710591733,0.82150345644022893,-0.81169213249278027,-0.27068713837915076,2.8954690960150011,0.69030246903853076,-0.34508506155424901,-0.54955507584068675,0.16345801832885032,-0.56804857619238491,1.0226672607419596,0.49295986641166051,0.35274462586108035,0.042795013966082818,-0.96704185787520036,-0.5610769125197218,-0.11915281179507412,0.36008995551583567,0.13138055020103695,0.2107801863060122,-0.87295103942643959,-0.56549514216521302,-0.09447673627051939,-1.5318706327815987,-0.24643695926854692,0.56262448247161478,-0.94042440125449922,0.43421795274414421,2.3855206636218131,1.5860269415257895,2.6061724288147019,-0.30635524909736372,0.9472916047922274,0.42931819993831005,1.2004441025902801,-0.75466166626178743,1.7333306773847696,-0.73994078726344492,0.05860727563817518,-1.8009547679815934,-0.73269125188539441,0.28609251415487358,-1.9319052879254959,0.83149384492293443,-0.91699963179612287,-0.42528691312455336,1.1961756147468134,1.0894804065007424,-1.1978473187877952,-0.3778725528522543,-0.53255595284027635,-0.29053493902509886,0.14396985743109944,-1.0809144421697796,0.24019589977651037,-0.35234907778155478,-0.83294468236642139,0.47187329118945082,1.2994339234210215,0.3328666840086219,0.78544184547058538,0.56208945530456822,-1.7374541292816741,1.4721359270534522,0.22400842941494964,-0.27406586589366599,-1.1074394594976387,-0.43943417410993613,0.087694636185830899,-1.8262125412223424,0.35157704509365079,-1.1503822057320112,-1.0726144130367876,0.49518168133784868,0.098283099074090746,0.32430780822370325,-1.3697564270757705,-0.35895305441369035,-1.2016212584870021,-1.5465094775478947,-0.80686370693880605,0.50650923447247631,0.85440161040460771,-0.81367767708504635,0.26782774965701678,-0.48619852826424897,0.17735519717409878,0.6960510073792433,0.23526558903485681,0.15165107181849427,0.38827769439348386,-1.2702124998382249,0.0057023380650452387,0.56355366487819236,-0.18017326525217681,0.48784597660626555,2.396438583067412,0.95844227408917737,-0.09461592788000027,-1.5219582082822505,-0.025499879616406401,0.81929271196155418,-0.40131405247341012,-0.62022266326454767,0.17375865092051729,0.31247378557495614,-1.0458823103850516,0.17331361115993119,0.52021128534271432,0.062151235627991977,0.063486396199219253,-1.0498827779149431,0.17325389896754731,0.51299658621789324,1.0206329673216987,0.36872416131478541,-0.67316467516763456,0.38417247968156976,-1.3015540115406341,-1.7576446005840436,0.31247758124377395,-1.1805748979078254,0.24764437757277186,1.1868287086112168,0.35711551360694449,-0.77754684933199802,0.42991476688151342,0.3875302553912609,-0.18292243022949323,-1.5615299645713674,2.3712002139438204,-1.0363960934834446,1.5494390994508904,-1.1486360987923792,0.54230335968874288,1.974989322038915,-0.18889304647300631,1.3039385191743649,-1.4518378641075229,-0.65423124260701704,-1.0697161848201839,-0.73029900710320172,-0.36354001610044206,-1.4609935022303133,2.2085407921297495,-0.010390131434961921,0.12574987088284487,0.7373535171918969,1.3323562656852459,0.061276103192033443,0.37033073704027802,0.54583757134845379,0.32828373954557133,-2.1587620652648587,0.020502571806875414,1.2090852022827223,-0.90823804498820715,0.96094660722930081,-1.4628821228175477,-0.94689495134822688,-1.1977410679452714,-0.34327367707031481,0.62242460738206762,0.62355411754438028,0.022020416828153953,-2.3073070587724791,-0.056221861891076044,-0.11937654182799927,-0.72602391437445168,-0.5034309462182347,0.79610281789724957,0.13859507689392253,0.46444836275214701,-0.26124222972939082,1.821577091962042,-0.81317200111472854,-0.052761305082575621,0.1493736758008409,0.15180125526251342,-1.856134081896599,-1.7036464123602182,-0.19995815811286152,1.3272673927815324,-0.24409745382543604,0.35519048876594961,-0.57181573816019016,-1.0122096443672377,-0.39031919858516156,-0.63450331461248388,-0.54942025432881858,0.11549503666252074,0.18253428671454985,-1.1964578489242561,-2.9813278455902394,-1.5068092228655978,-0.49465919189882768,-0.33285569899209799,0.40308487248567915,-0.95178508312936383,0.0062667731534839718,0.67392158819258829
0.895194417215609,-0.62796605391638616,0.87475223839188765,-0.22201548283449268,-0.09773476795760587,0.43252733616292327,-1.3732202328797676,0.70746571113260426,1.0601566672988447,-0.36655376690121155,1.4664916599206674,1.2245705227941306,-0.58487672532684554,0.88062502315307922,-1.2736850358059211,0.082980331378042463,0.020736076993177293,-0.41749428525143772,-1.5300322835173692,-0.0093297127021933577,-1.5670338225534957,0.20601722384175664,1.5213422884935743,-0.079816471649332851,0.9006606308446129,-0.14522330525766389,3.7429425887686332,-1.0278169140669975,-0.87227437850287104,-0.23289723530184558,-0.23578084273467026,1.0923812174891103,1.4132694123053569,0.5395346856037595,1.5307039647154346,-1.0965302689902521,0.19687200042506386,-0.010628998514096202,-0.2117001910072189,-0.096387850321348625,1.2700674044838085,-0.52499662113489753,0.19672500785834343,-1.6942498408916227,-1.3910469611428504,1.5451375942962342,0.40607202785631064,-0.99991916752298615,0.33164021241986708,-0.98665073426714389,-2.0119187953785929,0.25498238112088645,1.6320491351983735,0.20432393303799637,-1.0516122777836949,-0.66837586345089639,0.4607979930449369,-0.45186193963953686,1.0732671680149595,-1.003849103949696,-0.63767367577658829,1.1121932701339856,0.47323247996656381,0.22871745983389868,-0.50881083307798514,-0.77697375777665845,-2.1131865058443178,-0.92974488944830636,1.6801769686130221,-1.0167222974139991,-1.4319256231944468,-0.078335558453312193,-2.0301583443269227,0.30481156384048869,-0.33251847842789373,1.2136183506832054,0.46035140936896463,0.69422408063027696,-0.63370800443105402,-0.037491567015764615,-1.1522796087258984,1.2606035548507706,0.89126639601063562,0.61971955620193164,-1.3751114575709129,1.0487808195938795,-1.790952480471343,0.31671019437679371,1.292355099176921,0.39133146707036198,-0.9078245516184108,1.3346252649419459,0.34307130502234368,-0.7289375788609177,-1.4457573531127632,-0.39376987606702252,-0.0073421086877876697,-0.71481023600900961,0.3894841945860617,0.49531430669286858,-0.2555363973457514,-0.1582512527891235,2.2155252667603889,0.4227290191245191,-1.5087985840179523,-0.077106549100145347,0.47545105906510315,-0.42919232460562295,-0.41498172996581767,0.10451823552848556,0.36623127114731757,-1.8712785543025114,-0.34182799229862931,-1.1429270280307919,-0.13660254005060854,-0.26405530422990742,-1.5429960782406187,1.0742914093754605,-0.15021433671764306,-1.0358276995335443,0.99217768279703511,-2.2371614067742347,-0.42302691432925449,-0.7168789452882508,-1.9508065422645273,-0.55796148950065572,1.5138483589795981,-0.97503933537320309,0.92708429309256646,-1.7320483429517386,-0.71563805489637644,-0.072655243529743521,0.76096760706229993,2.6536460146243463,0.97645584217250758,-0.52782525048861828,-0.60592351692237656,0.15186116996870808,-0.18261670483731327,-0.73166704720350517,-0.91327769617059895,0.14094508134537256,0.10342273829310612,0.25351222093865838,-1.0056754275088866,1.2782842828587746,-1.6298091819331166,0.65379793315333545,0.1239430685528104,-1.1020236341074026,-0.79187747891331361,-0.40109540375766561,-1.4835154145107969,-1.0320730681599251,1.5989280402841364,1.3308821774073627,-1.6654616132039168,0.12080794998482021,0.48229866807224919,0.25157659394722032,0.082920011111088016,-2.0649777594616636,-0.40651385925036759,-0.39917985673376288,-0.30172374556879966,0.36861348703473845,-2.3879117964153918,0.41194294260475339,0.83167936647799434,0.12176324174866393,-0.14315098196553419,-0.57078266412861089,0.42945091906883504,-2.090675911731946,0.41429200929075227,0.47840023380816193,0.45466511789282132,0.94235189022568888,-0.035783759510307343,-0.46720385617950105,-0.19823494863326752,0.51091716191382519,-1.0942077106312971,-0.18342937429040806,-0.36792357028615302,-1.2634593143910935,-0.25312682157046906,-1.1132414895627589,0.41904302887371991,-0.59399581874815677,0.97454312387052211,1.0438004353108665,-0.54004914732557641,0.42989516964890379,1.1549985001237812,-0.98047486069797218,-1.1056496322374318,-0.13990937452286414,0.44742199439171265,1.2284018215263424,0.44466325966326792,-0.041878481257110002,1.8959000582174292,0.014303552858435264,0.36585330178769493,-0.3267823307616311,-1.8178006608166195,-0.16155879079539348,1.120636950641954,0.40582878887552382,-1.7229048034383638,-0.83039113293234768,-0.28979045894254779,-0.40447775030823102,-0.92423042423815771,-0.26845946505590074,1.3016624231633105,0.85310484462628089,-0.019479697567481309,0.82767066226775676,-0.014659167969967093,-0.43084555829728194,-1.042647688257399,0.22817021145255373,-0.58527975013557165,0.33783661145355048,0.026168227574918459,-0.23728947543456907,-2.376425315370128,0.40105727052106749,3.1599123270675626,1.4922462697878569,2.4330437101535614,0.27918950224052758,0.21262350390889698,-0.59812299432199378,0.093464413180344597,1.3586153603330162,1.0049206415105996,0.62290778501893695,0.61318458056721747,1.0278783437172372,0.72356902135709911,-0.41326913560321893,-0.29831399180416052,1.7165157679835394,0.17413077394186019,-1.1130820399016601,1.0867420732912252,-1.1570633170012732,-1.8013546172356927,-2.011487723630752,-0.39673425739948842,0.83944340880715185,0.17385007032950781,-0.99937202580220263,-0.065543503005488377,0.25837820409806478,-0.25892894671396854,-0.038020393965299729,0.38672970358230896,2.1606155818938011,-1.1767511011421885,-1.6682026285968861,-0.073131747459459412,-2.3014685620478024,-0.10292243596943153,0.19263288807376119,0.51509294111588855,0.5391176827848142,-0.60753067549378459,-1.5304880762060105,-0.62808540291478443,-0.70243581274644973,0.17154684591497779,-0.11450181801380627,-0.041200009794914699,2.3269805524888358,0.95425548604447785,-0.52595232521163371,-1.0350924103782535,-0.01394112897132321,0.019562274644615969,1.9142428320868854,-0.049852882887585333,-0.47216943299607506,1.6405051483305164,1.0990102705322424,-0.48408829436607353,-1.676853335630021,-0.60947046332305888,0.27906051789007019,1.0810346061829845,0.28213025085231624,0.0078210702647739418,-0.0084703775697361396,1.2867060093907261,-3.7386429559434151,0.3858019468521498,-0.98096993855374948,2.4631922813644778,-0.66267031580265479,0.77913274414654876,-1.6056508907008111,1.1353816261483796,1.0750843790892151,-1.1443271768503374,-1.3829990615939078,-1.328130670529434,2.0761832756594636,0.27406260663111748,-0.16508272666136148,-0.46295065392428897,-0.20402756231500921,0.53522624234638438,-1.1674233540249868,1.1277479413917448,0.63178238420923871,-0.79255186099405517,1.2449646510863146,0.087670606549475796,1.0351983023685498,-1.1094942281431019,0.50116860634779081,0.2273111474226138,0.18723474059980588,-0.20016081491854551,-0.14962309961755516,-0.28897690997291969,0.75449337981338471,-0.29713288209107885,0.29413340814590017,0.82077986705616524,-0.70006976330008996,-1.3625758114557702,1.7228902875571219,-0.57217739799848299,-0.69662744081119243,-1.5599961241638669,1.3089357876595726,1.7339105066564984,0.0037858261799330441,1.1445127006324269,-1.0506530020935725,0.13556837788869452,0.5431604618591731,0.90203101875152936,-0.18826462735706451,-0.62610066064975578,-0.34866880730811461,0.77602554626030273,0.28739914906274072,0.82030589145704103,-0.51138473350403357,0.75769284356151456,-0.25858864223290184,-0.05234829738183068,-0.01335134669596098,-0.20762880314091739,-0.44983912237300355,-1.7658297991274912,-0.24069343249466812,0.32364606841586474,0.80529507403251455,-0.19672987841110226,-0.0039685030989424453,1.1101977542862713,1.7735090943664946,-1.5275044914104876,-0.36325535861340896,-0.60513151598017123,-0.20463783310177039,1.527529789863616,0.13800714210404358,0.94178685971366694,-1.1791409954792518,0.51089146621020864,0.40003961962669471,-0.12037598454731169,-0.096758498436095658,-0.62071442967859791,0.3013017275702275,-0.09022358335848675,-0.89204449685654685,0.12097180047579942,-0.11478571103070678,-1.6359782408768428,1.2056525832733425,-1.8490201430015185,0.90268586151201857,1.3061697768290272,0.31816160018338074,0.87419265742719343,1.2152291787538869,-1.509577256375783,-0.90846713715756211,-0.81515225123966795,1.3681244809931867,1.768545597818429,-0.088815969867478695,-0.91435942253652325,-0.79851546052544853,0.52898383815592565,-1.3011578554685266,-0.30613070278649596,-1.2905965465725495,-0.26372333184247587,-1.5767280513192756,0.070158387163791067,-0.75753985256389123,-0.65835720661189645,-1.3574165291007121,-0.15920083711268262,-0.52703402449698977,-0.40603261293400994,-0.38807431800119196,0.22556090995750505,-1.1886502908632404,-1.2021020987675002,0.12000580125294351,0.91710544368716695,1.4978382064190627,-1.7102472511216342,-0.94534129123309418,-0.044360643240346942,0.24045345150100519,0.23101311541840686,0.55757409199294339,0.16823403981287599,-0.71820193079591921,-0.37190434586081789,0.069709132925916115,0.54697068502880908,-1.5861246480702389,-0.11480649757899372,-0.054860000378713046,1.0225055625463286,-0.27879023128799907,1.1370162657392748,-0.96642964096971007,-1.6116834529150319,-0.89968235054158097,0.54503502220008271,0.20552616446112826,-0.019449528379833311,-0.3249440568964444,0.53673883018719348,1.2417584123735392,1.2077381337639381,-0.26299143217962223,-0.67371414419932352,-0.53065739092984443,0.61832190493889372,-0.0056797925218398625,-0.85661374761267961,-0.99953891702932451,0.52685897308366147,-0.89752782993421354,-0.48035176440791499,-0.18837892081486973,-0.71568789080751616,0.19972380474372803,-0.19572336663040518,1.8139912167493857,1.4505979845992352,0.42722402310108343,1.1944307122024436,0.68497696471704828,0.4529249242741949,-1.3587429694257809,1.8142920370734212,1.9604379552646924,-0.27051325802722315,-2.1869645521088592,-2.7966591870155342,0.21395651944196187,0.043310584854796011,-0.49208673776644973,-3.3681642472277789,0.30865981313588614,-0.74503959907399775,-1.5975545675713048,-0.50028893291163246,-0.35071094673160685,0.80842777450612857,-1.3560473059822802,0.42820348970858579,-0.024313523963286201,-0.82810177656639272,-0.036359985887915142,-0.41130906171901582,-0.55079260536601926,0.91351159419604677,-1.1997580648642794,-0.46528226519409971,0.49773997645842311,-0.24513418808120827,2.2403168157615592,-1.0082109325300512,0.069116055507757346
0.048247599168293055,-0.084793824144117264,-0.92821655569226358,0.33462890116735294,0.77323117476985725,-0.31598045687326448,0.095571838480751722,0.0082255013293230077,-0.66388561864083251,0.095988369317762084,1.5169079268843118,1.1105200703283653,0.65463240055649885,0.78352152109347584,0.3096838662785712,-0.25163955142405775,-1.0575652724688427,0.38733167769795496,-1.2874623380219223,0.05511872338327007,-0.53337367813974834,-0.48247197153756133,-1.0203935422484158,0.62716885290990954,0.32814433423126105,0.66003388170469413,1.0470650070326155,-1.4987557739177879,0.49954009261506577,1.9590028406852014,0.76186309936328001,1.071254600103327,1.460421264675434,-0.95397342079711733,0.84893022310809707,0.082979079370264983,0.41534757812222928,0.51337289305830425,0.46430160413234312,0.91778930092963584,0.73130512744076404,2.6593054041781263,-0.10868486091012455,-0.6492735233501018,-0.484277375211079,-1.1347748200359888,1.2179391760900018,-1.080619426050009,0.54598531367622882,-0.20134863461932376,-0.54086491412468518,0.39991898114876734,0.42423913349233444,-2.7257022453341517,0.99172512174401228,2.4180573702472921,0.13138191137336774,1.1470639084491352,-0.21352991816874523,-0.68342722397830513,-1.869231139154361,-0.63037611360658596,0.25581795143973685,-1.6792319436747865,1.9917399096749397,0.054084922194538095,-0.077903640140801658,-0.054738815779819212,1.0923756549886769,-1.3490141331529788,-0.70986068345238107,0.45715294858361954,-0.39628536895414657,0.077050929485691907,-1.2226502394688852,-0.2971305002823858,0.25449918923704212,-0.098711959084782447,-0.78583945585356252,-1.235938799168812,-1.4668110134341732,-0.74972971819250445,0.56516291847784328,-0.19666634894540677,-1.178089547421415,1.8502541557956769,-0.95831819796184392,-0.1961316067605775,0.67862632254194744,-0.025734873370614617,2.2100195132068183,0.83129710125812395,-0.2072217926720345,-0.66514284508131238,1.3043753994163019,0.89294908758213809,0.75464611996005349,0.54284105794541593,0.70716578611544267,1.0247207734982129,0.19971613910697683,1.168308398779532,-0.13383715165825455,1.199554119721457,0.22522394020689393,0.82602977856561444,-1.3757878223007707,2.176457628248468,0.50806006646898505,0.15733899856690065,-2.2800493574544625,-0.53125517376077713,-0.58394744521538466,-0.0059494850120087525,-0.45025812755433203,-0.29116831945771499,-0.22951468989795304,0.38781931663316482,-1.9001725339820799,-0.10247579213775712,0.12701531317710502,0.10508626625740146,0.62581685421895461,0.89077689812125416,0.43537028584476956,1.1056028109699887,-0.18783447254345789,-0.16908440674883318,0.51771131170363849,-0.5395609502132076,-1.8216230803772337,0.35395678781092987,2.1098268269674643,1.0367015419854324,-0.62719901877104323,1.6203907048696007,1.0332790103979765,-1.2585981197937335,-0.04218449112900511,-1.2863974163942362,-1.0289893434167323,-1.7898499835903257,1.2554922280422149,0.17405544838101883,-0.0043359180174794192,-0.38927481844333406,0.68279246496788903,-1.688030781706862,-1.5292502415772309,1.185319613947025,0.28918612154875573,-1.5211787315372751,0.31517940530661093,0.30156128514812641,-0.054476339007976993,-2.4900023813182472,-0.8858620417959594,-1.4842041278920688,0.76955133801403419,-0.25756486759092495,0.95939037823834816,0.075016695030178104,1.1449672595316001,-0.58699550396385103,-1.1541566127303076,-0.78176110492445139,0.063028322401941533,-2.1126302591599577,-1.9468865925247572,-0.26542188767499603,0.16248076533999159,2.100095813790686,1.1560161477375275,-0.28564303629436499,0.11314328812047758,-0.049929137467792442,0.065435705221600471,0.13542518865589911,-0.14256225155001287,-1.141909191919392,-0.77927104208451337,2.1548094516968339,-0.8632061147158574,0.36874646714688897,0.16607266341879862,0.63117379519814376,1.9018102998667585,-1.1098143973133097,-0.56547360773104716,-0.15949229794870357,-1.6661161736282895,1.4557310529863221,0.263766252210271,0.9573507320590019,-1.0236554908844753,1.1430039213571168,0.60718580614627926,0.11934881306731059,0.5494575755956761,0.23525277480303758,-0.52983445546221641,0.72922458798708556,1.0144224706914065,0.54837792308279132,0.28683218421979156,-1.0974668690721934,0.57495021039426786,1.7355098875384971,0.98380794557635876,-0.21224848412315239,0.15936071290579112,-1.2287636525483965,-1.7466850820937954,0.22983897376306142,0.62593741929815483,-0.69086531353497826,0.11155781995361982,0.2274913227669661,0.41653412800590656,-0.47514030598639878,0.59534648562442982,-0.33424210544893529,0.7662659735346109,-0.61890196816772902,-1.9070974849589093,0.42115717969534661,0.12937109717032522,0.31571376584490307,0.25496577762724337,0.21532420586329115,0.035260294270109641,1.3293265750780718,0.35092543950279831,0.77526056258800657,1.6238989293958177,-0.41026384166168545,-0.88008053998282798,0.027718198830001754,1.0768168704875098,-0.26221446559624795,-2.9709551658398712,1.4792245633245467,0.39772188059981511,0.077146853359308223,1.639874034527989,-0.33328659561412616,-1.8741938013177282,-0.056061630577157892,-0.77485222594980119,0.90160197871761638,-0.87236836481760816,1.1950470548582239,1.2812485708336137,0.38916970869749512,-0.27124999152867835,-0.1325351732147669,0.62573472141597908,-0.32418430065303172,-0.13749157208510965,0.71009405526295011,-1.4343330757161132,-0.26355712244712004,2.6393508127185825,0.54679749011543233,-1.0877091206806986,-0.8843565562646909,-0.25587605572699029,2.2729177624442851,0.28192921567131107,1.4039105237054612,-0.57249094955879976,0.33601473608434324,0.23499252832676346,2.4007786341334612,0.42858720424474145,-0.97482128871427676,-0.3468241678232688,-0.88710673381680449,-0.45857029906702917,1.4246773169157698,0.41099703275324306,-0.72290054095171474,0.97429775973889421,-0.51125326012090155,0.90867107548642012,-1.351900867727247,-1.8775235596826341,0.23450855559571188,1.2817533437589042,0.56347175477604383,-0.40050418345871419,-1.2415011598054437,0.5592728411768989,0.48087107939178347,-0.15460577402359038,1.6978477511518615,-1.1749644020827947,0.32355371011750411,-0.15306817818409973,-0.62707193962856567,0.5013093539191037,-0.7272035190547026,-0.38445666609364831,-1.0464722086015512,-0.51159535750355922,1.2622896642701056,-2.6316624656824361,1.8491849674506511,-0.33967271522829162,0.32962011526354279,-0.59773641500479169,-0.4423356184065107,-1.2552479922449837,-1.3619721033934136,0.13038779302363587,-0.12372017045554891,-0.62221853235388547,-1.7363219239640888,0.072778397373234313,1.0208060336801401,2.0352401718160413,0.29683006750583479,0.37795719665041777,2.044281229010354,-1.3481535122039841,0.60916227129959366,-0.78746223960494044,-0.45648301430829785,0.39505659919207592,-0.1884344796578048,-0.8374648404824302,0.15872978251298622,-0.34469430974446907,-0.32013973500206122,-1.2913017725548661,-1.1485688193970989,-0.46915269969877427,0.60479351144533833,0.38256906322185258,0.69085201681871589,0.23916479184627801,-0.43429848023484463,0.021614127972002566,1.4552241287190042,-1.6321399546945932,1.9127898732637185,1.2381891465888775,0.47609371836094139,0.078126707429749129,0.2175442672951203,-0.89464511681344239,0.12337350713037779,-1.0764324777401633,-0.33420597118515943,-1.8351431322078966,-0.063761754898907549,-0.60975272845086226,-1.0551556243607016,-0.85819745257791735,-1.8020596790228391,-0.42538216997228173,-1.2311972248993295,0.085884437218411977,-2.8369670012043602,0.16481765104719281,-2.1732830330154198,-0.88901599137994303,1.3164448473310721,-0.12834629498575462,-1.9449671017052825,0.72414264749605661,-0.54638047426156466,-1.5130081706229874,-0.7008306687838004,0.369646298542055,-0.223643163839123,-0.7624230564579888,-1.0929799996397209,-0.19989869076613434,0.16362926560812918,-0.34921178020801419,-0.1583380290282585,-0.91466489495333991,0.18558561466386347,0.10410465293062313,-0.42839364679556902,-0.59890440413860013,-0.61242016128045318,-2.5556489260977919,0.49436537121307883,4.3144148565605272e-05,-0.78523686262110615,-1.6708383697426408,-0.83412648308114823,1.4082316961281587,0.38578069237836865,-0.23351139554158112,0.024335957440278978,-0.31822491417197962,0.194038254937731,0.42787344391276905,-1.0903098988152293,0.024682257016256041,2.048381741973067,0.088343367837111789,-0.0027919992659058588,-2.2296576035048945,0.95947755018408909,-1.5547109412083835,0.68357793237298292,-0.15041933668625229,0.28798125702287697,0.34916956927015325,-2.1004253066204837,0.30595732903374501,-2.0238156197506867,-0.3372865602634092,0.45943191797681188,0.24510899013973292,1.1211749880805344,0.095341970498909301,2.3232700162154587,0.70110536553854008,0.76241050257767506,-0.60479990310750209,-1.3401593119547706,-0.33413068342743146,-0.53630935091980281,-1.3391873290586118,0.97035440100352355,-1.3850505429374131,1.3599917232779295,0.92605213077218074,1.4923981096701817,-0.62534997438437101,-1.8348112287830087,0.82280603431394272,-0.36693242093040346,-1.0883112015776062,0.58609955245887979,-0.97783767219291717,-0.6750164108272132,0.042498429215519211,-0.65726964795621623,0.55221985520974159,-0.019599983271798675,0.91857553128540936,-0.93668410316866368,-1.3444547658160608,-0.39596435814576925,0.2414182097152453,-0.96390040601777927,0.54299585577803056,0.83691364301595972,1.9748027617060882,-0.082600005516768146,0.8374869173945253,-0.70859860458847945,0.81932667765829748,-2.0839400222838758,-1.4169534104229256,0.44409079137657675,1.834020487739116,-0.44213522148777662,-0.52527203658174482,0.44657119041960214,1.3697707172141051,0.37537502098549297,1.1935764289739861,-1.0896783571824264,-0.1049410731093937,1.805840002193468,-0.0058002625281120979,-1.0579148056444805,0.57852327918050828,0.72229862744664231,-1.2489724586971016,0.64813718444916346,-0.18407667816472398,-1.1128952426988736,0.15258076200074489,-0.090850637247639865,0.49107400922067918,0.032065931945344496,-0.46148050833906323,0.36351065398542026,-2.1057011524017697,-0.010175934353152892,0.29418922061622771,-0.49964878519108785,-0.21978091493698759,-0.032130985963485126,-0.13698627645181111,0.57105545952181935,-0.70186193156987886,0.54595471771194626,-1.2388797629158115,0.40295811418188165,-0.79119368628944109,1.134324422296938
-1.6878364048109655,0.7894833545086527,0.24930292313550531,1.8524605508792775,0.12248034989546563,1.9696566526592949,0.38906116924849887,-0.13919150689985213,-1.5233141098629042,0.25154885542876682,-0.70890677693509718,-0.66121136685418136,1.5876744451996492,0.31766401779306264,2.1430309225883697,-0.30969498154391623,1.2169764758907211,0.79275287618405754,1.3316029277989758,-2.8512156269790996,0.139709826234615,0.59198208649036821,0.70099905577363975,0.44499845363082963,0.067972038197415735,-0.27831397442135314,1.2088548332097127,1.0078177520547507,0.58112256309216914,-0.018181413323780312,1.377631612400894,-0.35009968041123801,-1.1970512541902387,-0.730279595611114,-1.3854137075782627,-0.51512354755346668,-1.0069191721626938,2.3136201657848732,-1.1862120206078295,-1.6146745375650198,0.95443420494238229,-0.56954574922120837,0.14990961191425753,-0.95386159312112084,-1.0567181057886459,-1.8518390408079464,-0.14393218012535425,-0.38795469847741793,0.66673176342284124,-1.013307064788292,-0.43626888395122648,-0.033240378131437272,0.97246457884063175,-0.70724511208193408,-1.0930686989852516,-0.47563352078569066,-0.61468177852257955,-0.048928466293260545,0.94425927213008931,0.01222632098973748,1.1273174163492201,0.75189217753601489,1.071822618152555,-0.50417898142966633,-0.49617516191331218,0.024583135072904952,-0.72269471989526179,-0.73161237630525289,0.13900965093013848,0.80294623176912605,-1.1277638398133447,-0.31073300529341452,0.82551865241852096,-0.74902890034352221,-0.70430776724116884,-0.098139024957992121,0.4163771027824858,0.072057842899455604,-1.3926534899966663,-0.65699545087702738,-1.1622068867982844,2.2486395157491263,-0.3501045640720698,-0.19889143493084263,0.79360866298040311,-0.2554880181017577,-0.5885537964597003,-2.003802451722426,1.1930459663103057,2.2647624530854227,-1.1343371909297715,1.4098095886059057,0.55321685490379946,0.56947883279393607,-0.92147154107582496,-0.81186016900232005,-0.28211633024268828,0.96302771716712465,0.84368225067448654,-0.34108126490303664,-0.88402961577681616,0.25831740375637186,-0.72827167735326503,-0.44830515286710104,1.0375417550005812,0.012209136649718275,2.0900466454775715,-1.1971316105707446,-0.27961988276144067,1.2677396075173606,-0.27651129444675027,0.018916832784877925,0.1183229946352392,0.61168876343642731,0.080582724340465053,-0.24766554479109304,-0.18213185662220249,0.43806924269380676,-0.51013942039591542,0.71302600462619226,-1.2955908727446166,0.39603142963235372,0.67683341615749126,1.4110582557954625,-1.8239984979550385,0.28903385935204023,-0.14698597161359755,1.489858110035613,1.5945451602822167,0.5197161157698893,1.2198929458832415,1.4542816274888681,0.76187317262121801,3.3907107609714946,1.99429861914424,0.30771205906350446,0.34432269380855357,0.19770363406065156,0.91053799216455911,0.26284169747425146,-1.092650021666727,-0.54515788688558464,1.4984725152640237,1.5980468487271713,-1.2771956247733971,2.077673118521115,-0.45284469464185628,-1.1556622839376556,-0.24041172853817225,-1.7920249816442055,0.19806406627072451,-0.41307609629423714,0.4087389575157831,1.091321766905248,-0.86249095056933145,-0.3691103325912734,0.19189533407336756,-0.58625548953932749,0.65495401572742107,0.084738357711246964,0.0094399706982719982,-0.71204507650637194,-1.9285503653765537,-1.3212119195545626,1.0472319649957682,-0.1095195082633094,0.53950387883799722,0.21905109961398989,1.514607730264862,-1.1743196621932253,0.24289994169352214,-0.77968572035068506,0.56172644697710172,0.29040523183429479,-0.54702041500147491,0.66310590527917213,-0.17246379205105677,1.067147494759731,-1.7086768544009836,1.3888672246279128,1.2230303906678974,1.3266195042256079,0.058616648107193664,0.71013187796087485,1.2445891375684834,0.55062003285748373,-2.1857961831946882,-0.87773108377339315,-0.11134756434015809,-0.2576433183579106,0.13684884723639482,-0.98767955586869682,-1.0494291964786731,0.087904188066601996,0.17675384931881014,0.015904474770249231,-0.23093419017845401,-2.0075492529341412,-0.43392485651220175,-1.0780701211966637,-1.4078867128375268,-0.90129782650969836,0.39066102378760886,0.88249837033715173,1.5908531876417247,1.5315134754929733,-2.1121996515427894,0.46591522002927588,0.061121821907483484,-0.55403993921985972,0.026424587855857242,-0.46626382962161167,2.4996189994968043,0.45022637789225417,0.24102696521191896,-0.89970332366149464,-1.3731399139711098,-1.2724763562006676,0.72766382512463712,-0.31377714667114914,-0.31549237701879262,0.10393314043523891,-1.8898723252645799,-0.60979803711380998,0.55460623857515767,-1.1373726531974544,1.4306567059489759,-0.36828099237110645,0.470612721287755,-0.6103521036515881,-0.28094997803992183,-0.20493039607113972,0.78856790971174628,0.91705213227372606,-1.5241951440845514,0.84672451220440925,-0.95993826456898834,-2.6750751814448899,1.2055756735107281,-1.2396303221730989,-0.35097331514449503,0.36601006606010483,0.50939805579111408,-1.2596283416575416,2.2216457453923448,0.30354014627900733,0.21724022133272902,2.2123860894211833,-0.75286875416821253,1.325269430555414,0.34208725364358417,-0.28651381604718101,1.5680850221893177,0.55254391186173379,-1.2136397889823105,-0.46381315216113955,1.2992242243090137,1.2287387165141119,-0.74860281879009638,1.1904316511208721,1.0573002974668393,-0.5735614245982954,1.3180092567052815,-0.68812117714690291,-0.16303017884090429,0.20799676968777572,0.38409917402990901,0.36595714657142603,0.12301145688702886,1.0632575203519021,-1.2170544588263508,0.90450913011561118,0.26729358911308349,-0.0039741143311578216,-0.24174177940679334,-0.64195085984049294,0.40309751341949651,0.53583912673964706,1.0048468744283312,-0.42872997579306482,-2.0014952559268089,-0.12103458968189693,1.09785927396577,0.52178308604529744,-0.99436489346237256,-1.1535776041467924,-2.1286986020682752,-1.325796653769127,0.98319436472472277,0.88671581977027336,1.5257492678219817,-0.94037804293876948,-2.2533260629115395,0.27757962511335454,1.3432459490293782,-0.10057773509177362,0.46171641175435979,-0.69595362976035058,-0.63475906037953878,-1.5382832416742407,0.51802986692976849,0.3192474631728191,0.18166881929152001,2.1205968070894579,0.73533109410268183,-0.44800301688159994,0.29253280145911625,-1.758208581995415,1.0422256598478559,-0.47869797233540506,-0.085354744951531156,0.44152880039156395,0.034282701342448096,-1.0842470243418103,-0.043059926884963143,1.2462463301016342,0.19308290082413093,0.15791710185534719,-0.45731087102454765,0.49104163126710587,-1.1129060392818102,0.93080916508041434,-0.081665715336952452,1.2952823900232318,0.19724925970714544,-1.3740116748297477,-0.14324618269842609,0.05281845302476957,0.26531176914746479,-2.1996147614968873,-0.54196060733585172,0.038860904065225618,-0.67975374863645099,0.27290195031662312,-0.87036914045011504,-0.33993027382323854,-0.79619734531166952,0.36693372581222883,-0.44405894163224996,-2.0547962791323409,-2.5271594101921391,0.0034318240431449884,-1.1556989175077865,-0.19723830121545627,-0.30365191367924166,-1.1079843479360478,0.21994729722194478,0.15315973978152941,0.65491559883888306,-0.9723788651103471,0.84706638690866254,0.076066504819972805,-0.83409101194650126,0.36794028700180337,-0.62763012029182907,0.22543252360259444,-0.95501367468988652,0.17920415952294808,-0.55356014496223049,-0.18991151547115778,-2.2502881370827228,1.696512772163882,0.047614052278965521,0.41045751117754603,0.68893920618136584,1.4814055531815618,-1.0071821384357746,-1.1888443786018594,0.63682479281844739,-0.28359001574011411,0.79458083820547365,1.6799264565208507,2.4840306179662335,-1.1243181622439815,0.72664478565154511,0.50549937193748606,-0.076358324151545837,-0.16336813055232952,1.0459644517350946,-1.6643889455907981,-0.73667480998983381,0.29450881960874736,-0.24095878928161157,-1.2217557085218045,-1.2591567736297478,-1.0622356082667745,0.37535484571625588,-0.045121601680604945,1.2540987218108341,-0.62132410326646426,-0.18284756629998286,-0.73610062586476444,-0.4968942885782246,1.1448585705126204,-0.24644800804233036,-1.1091209165551927,0.55542304180456004,-1.1905016894384997,0.68761808173056349,-0.22122384816437982,-1.8576900519994268,-1.4152770880436778,0.15114782081893371,-0.64014685257894355,1.0117399999635495,0.65086790528139382,-2.3030726158058061,-0.34286873712613736,-1.463430213195724,0.12390497785503321,-0.095000364104425555,0.43330854044804867,0.91206733938049422,-1.2031134741408838,0.85453892471295856,-1.5218383212053594,0.75476254664476528,-0.74617729491261453,0.79458281906224248,0.20262030406226947,-0.70061397742217091,-2.2149220038226671,1.6488371507448996,-0.46481909216707862,0.026179455747234522,-2.4859156781502074,0.044918257384929799,-0.31202871576057489,-0.53525888364320551,3.0380525437430435,-1.3872903337338831,-0.43245253821670115,0.45726287928978948,0.91160162806149736,0.407849937457059,0.68252720169211811,0.30614454781001421,-0.75607771373707711,-0.5168690236711686,-1.201510385930227,0.93941499491802127,-0.67498318150583436,-1.3332501255580198,0.1212615118301849,0.59566349823972886,-2.0174583726816682,0.46221381882262136,-0.3281249078432526,-0.71466244701611681,1.7259907038047737,-2.6775284909641774,0.92244326885891026,-2.0203534505497194,-0.28365039512936607,-0.72132343551891209,0.31828517937874345,0.77290363099184001,-1.0568674764931183,-0.075796377715722951,1.0327644205535531,0.0044595123477413337,0.21984124529629959,0.24210162666927557,0.0034188922971400628,0.21122437882614462,0.27987025991297909,-0.95981671142586322,0.091957417253421728,-0.22222175997658633,0.34155566233446399,1.503892232790853,2.1144854158523687,0.17598699852641653,-1.8407574315527324,1.0170710507066636,-1.2652117812878008,-0.41556649983522509,-1.8095300288529055,-0.036599435044385481,0.77987233469825423,0.39525308360927386,0.58588474879120289,-0.21810344914725549,-1.0721907836618172,-0.39683402973595527,0.45953522408428565,0.47578338261610925,-0.8175488022704076,1.0493966307434881,-0.42365483718975488,0.48287239736075899,-0.40880991825620844,0.36849323195417799,1.1226963672193166,1.2435373985996043,1.0925963554467366,1.7849321210085012,-0.1422961777941304,1.7724566557873986,-0.46258944435596205
-1.5619712079955044,0.13718629521610776,-0.27401144855271925,-1.6292550884978638,0.12279758719928491,-0.98436828887879158,0.0056832567437659562,0.35272487349983578,0.44884420189362734,-0.73046654556316837,-0.32965960348466844,-1.0623478473229429,-0.096813109171361156,-1.3155943822876111,-1.1980746988367128,0.78945597983289117,-0.17555964054389986,0.35644111069942402,0.55294692171191606,0.40748676810276496,2.0174420910422173,1.0711802599376334,0.0098817552849144504,1.2565084024902646,0.7029176928572094,-0.98673914460879586,3.1994553291174337,-0.14913641978799325,-1.3991570319473425,-0.10114543463401036,0.40128886683121323,0.45217744710484692,-0.34411776043290687,0.63307919381011779,-0.64578119760050434,0.14391641905814417,0.25386766253340615,-1.6619641611119378,1.143128815345835,0.34939032819423793,-0.54584865196229326,2.3945803805743537,0.5697809202845836,-0.31674464933362051,-0.05190573595894904,-0.9831359709274573,0.47765083577693168,-0.48915964422126801,0.72022812783824064,-2.8891139200089526,-1.2743778441104847,-0.56068944671779875,-0.84835944180265932,-0.11511106334956557,-0.2665735629360339,-0.16748018695788652,1.5084124104089613,0.52646604002903852,-1.72204000522693,2.4370144324669827,-0.87579321505782604,1.0331791696613026,0.57608403826698606,-0.95220342042506789,-0.2864269147180436,0.45067975818967076,-1.0243994490621458,0.10642852994489085,-0.092358644247542324,0.25207654351166958,0.19878457909660779,0.3338409651562943,0.76255710231747398,0.19486406273415774,-1.0742387014251531,-0.73190966866578333,-0.82707786607471212,1.0993457779339109,1.1706122307963371,1.5873304029859521,0.40477038055306724,0.67140169229600777,-0.88119667702676552,0.069093276776901566,-0.66685840596881996,1.8333188205770059,-0.3355242952631784,-0.36787161001638236,0.50976655979710006,0.98562718294538088,0.34754691495367523,-0.84681540692455304,1.2489910138705482,1.3794092968358471,-0.84571234017977581,-0.86682365324473942,2.4847488987507078,0.0014665644149979879,0.14913287233999689,-0.032124677445412517,-0.082607731879152671,0.4506525654307702,-0.16190987870251761,-0.12629186772972936,-0.18445411401072095,-0.099304601314744306,0.12585609890953472,1.2132179602682249,-0.54537267271232504,0.44742718168126383,-1.5562779240905058,-1.2534037412958638,0.6542599381258517,-1.1637927952060196,1.4028729213333679,0.64569620059237742,1.2688526908579858,-0.33393935139157238,0.48731652462392822,-1.9307654523924946,1.0410075723453234,-0.42528666892541606,-1.4255981250856009,0.87570877364010169,1.1585621833734741,-0.10916186850168205,-0.96267892385421672,-1.1033365223237599,0.88958812125495934,0.32098707717053371,1.6042808927513819,-0.61015760183564294,-1.3599578618307997,1.2781869893609146,0.51560920328339244,2.6184275090729798,-0.56129998229172484,1.5210203621221841,0.570099685008989,-0.60384661322106004,0.64724846196320041,0.2808302685478401,2.2980736076981505,-0.93692406078407764,-1.3090964919041135,-0.50198800382382236,-0.31367424646973147,0.76309997938018326,0.79499199612604921,-0.20122909811386988,-1.0079218113429036,0.32764658893366849,0.76572073819662068,1.5945391834443501,0.44065968068055855,0.93825159394540991,0.52249072759132342,-0.50591662397693571,0.41542307548464141,2.0663080027933982,0.44501596780384201,0.8553422630886699,-0.76737401218115442,-0.096600636655399252,0.00068466748750804698,-0.10820236462014153,0.52280789418123275,-2.5926161287367875,-0.5872834875071663,0.40458672489231956,0.80185527744657348,-1.5966933835876118,-1.5507201786723266,1.7779059022499788,-0.5738097965082708,0.10715749929220959,-1.6889350147840438,-2.2056545842274327,-1.5389063059537458,-0.47747655123268651,0.064966421944908592,-0.016183721447846217,1.0159879913234573,-0.59524563282911847,0.14007366638704341,-1.3734908741118557,-0.66155785785568333,-0.75335188376770124,-1.8611000309765682,-1.1265241600170506,0.21113430983726802,1.4712324052811085,-0.31822170004192979,0.61433044820296878,0.44113226619922979,0.15586920611286953,-0.51687467919033669,0.22338346501194278,0.29695780673804556,0.49253925546538813,-1.7712377057921351,-0.80775106489158033,-0.79178089535808804,-0.63880703267350003,-0.53230189002108985,-2.206922349602741,0.2010708978036497,0.88786849301576742,0.11733169366905977,1.4618226731122033,-0.42772740977476797,-2.394505482561756,-1.7537741554891777,-0.27194911358827473,-0.8513435425178264,1.2490949866657366,0.24085427658750422,0.36985894104246386,-1.2554906077326544,1.0004139419582283,0.59409244171782805,0.074008241915099984,-0.45874755511687026,0.35343109766783559,-1.8116144031299741,1.7808587859274596,-0.345161879287947,0.73296551243236652,-0.27195041927553376,0.46023713275945694,-0.51264382104498096,2.5404479239993805,-0.94117630906968142,-1.6616449874274533,0.89745363514360177,0.48899045107419115,-0.26003060363603653,0.2501825518427086,0.14276119759891698,0.28477200503814193,0.55267248624173715,-1.6803196543312207,0.82323572325413341,0.93759500022556674,1.1676057501824468,1.7459904310523386,-0.27737285958221708,1.2182478248374451,0.33541156572631381,-0.16034992956254937,-1.6737609979653547,-0.12914193786988803,0.68131542975484816,1.3598927174159894,-0.17020420766718428,-0.58712056718933747,-0.67530486483562668,-1.1582418445214846,-1.1354884957496292,0.55213940560073782,-0.94295482924160934,-2.7495420791874507,0.21934615057530543,0.8390773883263305,-0.45425039207575957,-1.7597736802708157,-1.863815544127325,-1.6065891363629592,1.575907482135962,1.249947126355603,-0.017946791120789184,0.12304159144944116,0.88879542212427565,-1.3547515070411289,0.47259203035236258,-0.48265261291469808,0.26308148163654177,0.022233498580340131,-0.88300482708788075,-1.4622085371975753,0.22523806881869737,-0.97827157997313896,-0.13662875634148558,-0.94889875264694734,1.2683341308829916,-1.8538731663464052,0.1386179837586248,0.87318690274672894,0.60154677271186552,0.46493247716909913,-0.6387461710571648,-0.42134241788065174,1.6702236339230778,2.1686392005906492,1.2306241623523804,-1.2300200681411917,0.44942975255044831,0.52925363942182324,0.23187042876180605,-0.13638949912039544,2.2030282528083327,-0.12089480263811488,-0.32417426877562849,-0.85788624220818555,-0.39379107939977992,-1.9407207889298932,1.8621639982900062,0.51898615873619913,-1.5080954772408983,-0.38586773173641487,1.2365991752198418,-0.30419666181342747,-1.4024060126312548,1.3827800480919259,-0.55678207628948029,-0.52762172178470679,-0.85423018711487342,-0.14731337261161637,-0.24242919841027205,-0.41365110131315375,-0.64089689038294595,0.11681296256855651,0.063348942870246283,1.7713725351720382,0.44675540285710164,0.23698695675188117,-2.1851894179414848,0.20762452345935145,-1.3633259519669472,0.73524713451856294,-0.043684400650115134,-1.5897280931225173,-0.62149862424377378,-0.72227258143562123,1.8799017127845876,-0.1762580782815262,0.36072997586190469,0.57735748464950776,0.80154179862070263,-0.43700881867784575,-0.81082774161923477,1.1140321284902257,1.0014696792667768,0.33804169552180924,-0.92782699929569445,0.62275598511435659,0.2903630894591574,-0.17592654566460125,0.45608350702997486,-1.7463305112637704,0.45171316131327027,-0.10866956213711057,0.55337636030009696,-0.24185713474610807,0.65172639101126906,1.3568906233399274,0.4947967982689328,0.05275217665065314,0.032419807136577279,0.78080462564603259,-0.65464587250476947,-0.13645199341381362,1.7198744390200094,-0.8909111387071883,-0.88856826917175269,0.78691692694012072,-0.74754994812225695,0.54038769354489136,0.43818325141373016,0.58560513952238713,-2.211159219725829,-1.6070831935885166,-0.73640981682358553,0.64381026967757193,0.4275568862849024,-1.3254256574092611,-0.94549572542455629,0.92208016808579474,1.8277243797711114,-1.8272520378349146,1.6616420937006964,-0.23446511803902945,-1.3075956635639843,1.7705218303322985,-0.36828852241494292,0.99650803940423627,3.1355626504084437,-0.23371036399039433,-3.0012210110487425,-0.92508533544685934,-0.32657426343550566,-0.19160201252211037,-0.99906151633183293,1.0967176239516023,0.64842892092154159,0.3166745883559563,-0.49079023328435928,0.70808647111249368,0.8189901208983813,0.47223631591208637,-0.9949742790299364,-0.10573639817987679,-1.661388456252763,0.9624421033603402,-1.427853071382863,-2.9221164259072894,-0.64001419907283608,0.9459839815876967,0.53833188186623893,-0.24230402766165343,-0.46605648259653965,-0.85916511544670071,-0.64124385813598073,1.1916210414888033,1.2300669418047108,0.11321993229404628,-0.11504293846995003,0.28457411698511254,0.857851021114997,0.24420811586729599,-0.67856367498325021,0.71265935079633402,-1.2890902745904675,-0.6770049255441678,0.0031070929599056603,-0.89923330566891013,2.4193573808222637,0.039177494473044715,-0.4646416504017612,0.44939507573590687,0.32598720112750712,-0.41567343263748019,0.55372722497666926,1.8324335185897727,-0.9713266663713821,0.80826629895630742,-1.3258282934390468,-2.3695577417192673,0.69618858885280244,-1.1503634561056304,1.4012104639736007,-0.98889507193205384,0.18612163892817601,-0.70639803325624895,0.2387574139779593,-0.5510075863820636,-1.2083078008841885,0.31425660219411544,-1.4519146393270845,-0.31565519941517739,0.13810005391650862,0.022188999866540614,2.2345369855428467,-0.78033121280574658,0.016471561163388122,0.91810935910173463,0.30439650759501602,0.34134735872240385,0.81108644177206124,1.1921465935443138,-0.79455919056579494,-0.25598845550393007,1.2584038418022003,-0.20110326399431011,0.25510745994192063,-0.030234898532339103,-0.94888670840016698,-0.62338736185021837,-0.32019739338496184,0.55554556012496781,0.026185345811051659,0.50712742269018463,-0.91797634581932452,0.22373729975628637,2.5798962562955383,-0.043893668573203537,-0.75537052426836782,-0.89087098168014944,0.036121445022696028,-0.51333266342987449,-0.055103271223805046,1.2401188903306706,-1.5543333030291593,-0.59036035295347411,-1.0611838305895076,-0.2880781533058851,0.49334634379140424,0.58472451611052512,0.14577336565413421,0.91413136847698317,-0.19247529382672174,0.34283041670706615,1.3311175609254069,-1.603948062809202,-1.2946407608727548,-0.04207705668046427,-0.84231327259444488,-0.53588956029128276,-1.4270427502324721,0.50968611943657649
