0.28092036708414886,0.32864932066819313,-0.69307349341339886,1.0207603658369373,-0.75478271977951816,-1.3360944013915683,-1.1465998786454836,0.52271905141455044,-1.0044418207873393,-2.007147828828415,0.98358572799335486,3.2766126359645456,-0.45404532489295663,-0.20787866804724373,1.3467674488159465,0.48855637362237397,-0.45774037009590984,-0.49721772815277687,0.5071716742546879,-1.1487167196986792,-0.37907357504945782,-0.005561242905589338,-1.3202737746933133,0.58409074371382075,0.47406782989839957,-1.0930427081171428,-1.7665229956267181,-0.38144355872000835,1.3036062622596756,1.3250407671242659,0.061390898629068359,0.050739526335816056,0.74900201740552008,-1.4903326648469422,1.4071122069162239,-0.73649487839439387,-1.1294169874766038,-0.61373167401444462,-0.3224201718216802,1.1504474449610413,-0.18708973532630724,0.57293292944877605,-0.008966012487850351,-2.0390274348945385,-0.82545547759784321,0.81604127228630341,-0.78326947242107026,-0.97633252591675368,-0.69131781691175931,1.0225590999824878,0.90872966752576534,-0.67739911335043246,-1.0702000088627348,-1.8251159521049476,1.6974045262306672,-1.3172539106506482,-1.0083226770828768,0.52725432574512743,0.49505675066384203,0.016558666506358566,2.905737124198347,0.21626727253803499,0.2889696127086962,-0.13481577832461361,-0.062713782899327025,1.0407156879418231,-0.98804972207742447,-0.075746485698685348,0.55016759590248465,0.68932036930389662,0.30745735203090618,1.1062034371531455,0.94588909100647844,0.8446255352156995,0.36554507328285663,0.3059548634804739,2.0732453340636661,0.18135904493221922,1.4711388989933016,-0.732165659730457,-0.6737940533742014,-0.014331437209107465,-0.7280754431362314,0.53194141132027362,-1.1499217616170514,0.4216534866921714,-0.14842231170165218,-0.40337536991573036,-1.2050157383442925,0.36104562196690415,0.14349771249670829,0.72184004653247291,0.57701445507178639,-0.62028170130555438,0.11014017723571047,-0.55618102151189053,-0.13325801973953055,-0.05370404599876083,-1.9721722867069114,0.67455617932987411,-0.947935293591739,0.40987272986521128,0.4615332854017396,0.41892056451789678,-0.65142728950168205,-1.2603728360955297,1.4628275986261132,1.7750870609402931,-0.34050938164524802,-0.13411214714388661,-1.0035334761742556,-0.3685762112686084,0.81379326693719301,0.345918459387904,0.3394573406988009,-0.58234607443176112,1.0288607355562809,-0.21076936104233271,-1.1179464737664548,1.0983494738833262,-0.32735991623211197,-0.68558334513946451,0.59378546436553192,0.87576081620597956,-0.87345134972074179,0.47524523317892015,0.61846376892969657,0.77315838025519934,0.37823225677155742,-0.55069651059616864,-0.15535550395439388,0.07566536277973622,-0.47242260465622266,0.51535238551541851,-0.95793721662621389,-1.2944663706700774,-1.1829396738158904,-2.2580301025966021,-0.81899880083363286,0.77364647711572498,-0.28811908050390239,0.95458624833146488,0.88487642834552382,0.37146245998310878,0.66853007122090724,1.9724147893543538,-0.21898611761253764,-0.15539529757412965,0.80890019521174317,-0.69117110028109396,-0.50997072773191687,1.0292276882768947,0.98633716155036799,-0.94047666335822733,-0.2844794476498323,1.3194115260502177,-2.1528878167643546,-1.2748119707855274,0.12321402797787923,-0.18716774757072155,-0.15124969559942802,-1.1723539536468661,-1.2319057014376413,0.72890463627456625,0.77327164781233493,-0.12806722731931347,0.57757735567118729,0.47328227161868169,-1.2121144986397101,0.23802697647530957,1.2375505203347279,-0.092898208043628985,-1.0595144474743516,0.36969902903643176,0.5665975684442276,0.6053342323177261,-0.65376705180288353,-0.32881049609498975,-1.8152043731293597,0.16816060345777664,-0.83158836198807684,-0.38102135203828924,0.62777879287466998,-1.0029805476949878,0.19992666767054854,0.36425566509055346,-0.11604201908995697,-0.034578821782058698,0.1150565499703143,0.20415034776892901,1.6657341529521137,-0.63856513368676338,-1.2487212016692071,-0.047397053896153292,0.50328285420011099,-1.2515345814844256,1.0474125648198673,-0.64000584500334901,0.38452375786077292,-0.32397819629620561,1.267986238202641,0.063663999786386177,0.39164478418969306,-0.55931406968663788,-1.0870558067545941,-0.84323338971857131,0.76321096359626517,0.93701112256640384,0.10463098665541874,-1.1336833990584927,-1.1662934232389401,-0.27189995496962582,-1.0362773681937172,-0.99767104643829696,-0.29006061413045986,-0.67908531480135326,0.33599657034749947,0.46161763353362284,-1.4856583831691046,-0.5041473578043586,0.029528941139436316,0.093447117740038985,-2.1936988739741743,0.62658622783597318,0.90488886290361525,-1.0141547720259738,-1.037501606135149,-2.8972417200187972,-0.71450423450128742,-1.2208448934546121,0.36351718190160281,-1.0616562193346979,1.0342947742290356,1.4940464672524536,-1.2134014932023434,0.71887164623121247,0.77535533578508842,1.791134368725346,0.67576545465124649,0.82198395186329676,-0.14745691181516893,0.65924160700019552,0.83776373024110984,-1.5392684824104379,0.73907175287034266,-0.73411030147562051,-1.5056554548345422,1.9459902401352325,1.4267485850695429,-1.7862196684719613,1.1686955204208753,-0.78565448331001897,-0.1788083711253298,0.34171644861467115,0.56276469666889306,1.8407390696314285,-0.010562061114340021,-0.21358046552712812,-1.9170064615801738,-0.18623207564612973,-1.5358599708844602,-0.5916400006779341,-0.2147589992884279,-0.018091359113903142,1.0937058454521986,-1.3630377859032119,-1.4757232960938325,-0.42435327772637371,0.60695334695184555,-0.92460434122511304,-1.2569425500858156,-0.47623294821105483,1.1673592103736856,-0.14347775171600066,-1.6433318323823705,-1.4828345999937027,-0.53088652002089853,-1.0466819662453324,-0.53635436771645117,0.46986548177390014,0.68497742381965221,-0.82762563790300414,-0.33079827521362759,-0.23018425383440708,0.086607062596761583,-0.84663273354165791,0.6924634882220394,2.7062559090248177,1.9844423282405019,0.12251670646148613,0.64656067127046823,1.5759721653727912,-0.40219475946994326,0.71580815417356691,0.30635806772258578,-0.30901635239904557,2.1604608691339355,-0.1942281888518016,-1.3147927258586738,0.5475812034163352,1.2872096149181607,-1.1877021644936967,2.8798338572391562,1.1639619582307632,-0.55852421574084588,-1.7712717778955831,-0.14648726621001623,0.35378300654545541,-1.5165851818510421,-0.06110364805783626,1.4058832260035752,-0.97595709586545065,0.29794928946725674,-2.4838201728057028,0.28918812533140675,-1.0398021761994176,0.17985150534820443,-0.42018702513369105,0.19894611049391886,0.90443361433922709,0.20335113100986707,0.00032219991414227263,0.6176644687917936,-0.72864887488368879,-0.94248787840490023,-0.0068833838221796914,1.3717910623735972,1.0671419195326759,-0.5700787572060354,0.64335614029015609,-0.27593047492126777,-2.6281831371658173,-0.31572268629385281,0.26781779407843231,-1.1928420918377627,-1.6093495633437516,-0.1589242661005987,0.54766573564976284,1.2034196404236945,0.82593458504628781,-0.39218627927678568,0.4423344554015588,0.51283223410441392,0.65109071020190201,-1.5400356218615474,-0.81346887161384007,-0.02407011691868895,0.49845539980595638,-0.84549690843929903,-0.70265976993174384,0.15069305203443983,0.49555842007746953,-0.13242444711393844,0.41076539775135185,0.42994860706922589,-1.7933051687362371,0.62188323624767128,0.1616803311195768,-0.7979492744354737,1.5450513752907373,0.2909889173655455,1.1971814269574266,-0.0072005200613200829,0.54627945177380188,-1.9749738383619238,-0.32254388306700954,1.6229110389400236,-0.69782498390048875,-0.1981526262855709,-1.8738091121493492,-0.56789220578634592,-1.4791910444419327,-0.082686990179890132,1.0284060724677073,-2.363608067090829,-1.3102762761997468,-0.29245717839031393,-1.2561942654967424,-1.448465153239372,-0.51871152542865351,-1.3029949191032606,-3.2376574079070513,-0.043229676355576847,-0.98187449427602391,1.1199098759276036,0.12144498719818983,-1.8475850866750607,0.44580821539447285,-1.5661988242677423,-0.53461898414079312,-1.2816900312959238,0.75570461326518112,-1.5929899602679904,-0.10807339593148964,1.0399623596409968,-0.5353055395285039,0.099793568866601984,0.70802107692878224,0.38180545341186678,1.1951865662682104,-0.37691259338022837,-2.5014654418516575,-0.34785885343277451,1.9150044131172992,0.087770187544687975,-0.42498411998810331,0.044130675713328522,0.328063772070737,-0.26431600798228805,-1.4887296738023605,-0.17121551411296457,0.58577958297027855,1.1349049323628098,1.3704416772731998,0.75024056082300383,-0.010117567055105964,-0.17530945842404586,-0.26845451310418217,1.3129351419459705,-0.64386117246161811,0.65694346565594441,-0.85144450918617476,-0.50563657884228308,0.13994049124455629,-0.41718078405605474,0.20410809852422826,0.31314163430230707,-0.42363200465835682,-0.14949590790220449,0.20768623132320951,1.8162154851545251,2.2354504882193145,-0.48856976819591852,-1.0889004770575894,1.5768313137869892,-0.70425863411959422,0.17644239993920738,0.35642821615411496,0.39407079655346539,-0.78278119575475069,0.96861840561602819,-0.59851295644794311,-0.61993382751987092,0.75608043971159011,-0.63148557605844735,0.21788844765623372,-0.39680075369866952,-0.43702110418057893,0.18037153903470171,2.7035465768735221,-0.31014990564695205,-1.3054743793886001,-0.72890145694271191,-0.66729333779712541,-0.96090637557897107,2.3379592903313986,-0.72609299836137808,0.86524013504415886,-0.88218897045905453,-0.90186401223863533,0.90659559071806106,1.0780956030408728,-0.43189668884886956,0.033813171999328283,0.5045040612228997,-1.1859448667688253,0.12292964090430376,1.2888353186124326,0.33292182171899026,-1.82897653688636,-1.0559584824779371,0.19152286240725752,0.37568150144312867,-0.99909542087659531,0.02415137225305742,-0.91854870658309862,-0.55874517966403592,-0.98485282431228449,0.39171208244657729,-0.19731037137189042,-0.84358438313131656,0.62248028681636902,1.793511949225272,0.59288739477487118,0.56462848096148421,0.080259487554909775,-0.4318561831202814,2.0015483562790704,0.15905921086440608,0.76702060243959314,-0.48851514587432565,-0.21306083298810413,0.9559854950740907,0.89856286869857549,0.90084214064738666,-0.12171914184399478,0.054485632912798239,1.1570996664904627,0.59756132540772455,0.071938735433430739,1.4580120692269496,-1.5611283754892331,0.68995601752878555,-0.057356473243833715,2.1430061871111667,-0.78914256530586913,-0.25857338095677274,-0.80009165409201011,-1.076444446163336,-1.5066188545513106,-0.038571262226780013,-0.048859845131461091,0.46531926504260956,0.1116761423700824,0.72625244429426006,-0.49191847412377399,-0.95792622469825728,-0.82125136567097712,2.3832900156163461,-1.3794149429667255,0.38578413853116023,-0.40913158997545279,0.95883905056830177,1.691082448055643,-0.3996600309081022,1.0770128825731027,-0.77451345808942207,-0.30063836752420459,1.3790251325701994,1.1326787595317305,1.1831470119737315,1.5252859502951401,0.79181763649605152,-1.8641901241661469,0.31879756249963254,1.0940335034554964,1.6225188517360736,0.53388990366346856,0.6032219043616055,0.64273135643919099,0.36523402232257929,0.0073631962080620917,-1.0450737167713182,-0.26347257497324933,0.92145945105227767,-1.1158159621420887,0.4193505753765816,-1.4984609928477493,2.5406269891998545,-0.1575857269060828,1.2037232918170575,-0.8250711131179751,-0.067346970464312705,0.38898094637440417,-0.2361748112804514,0.12519750398291338,-1.1741113948320727,0.39646046279372205,0.50526128430342521,1.0274347482552704,0.73026718859808004,-0.62136397332458493,0.83758329280676413,-1.453042931001729,-0.021176541529336665,0.78705531361860082,-0.28221381805217721,0.67345665751772144,-1.9256110234997121,-0.34877646166438048,0.87495080473131381,-1.0283502493071164,-0.69470087124230961,-0.86656178363757363,-0.58229441506790403,0.3759364322023816,-0.25448970702585499,-1.5573309343423345,-1.2433605035730222,-0.21111481381331895,-1.9281493806225838,-0.7786968790870592,0.0080520539220814893,1.5409055514684202,-1.6830081865919819,0.74436317925660012,-2.2280357768638255,-0.63652592455003942,0.36503364633265867,-0.56952182240815985,-0.53546903829928616,0.42692739147285652,0.44337028068817386,0.10611382470717143,-0.69917764210177225,0.47522754943851298,0.33147265097565953,0.94181125889681339,-1.0437637336071903,-0.88017677030091757,0.75999013435280449,0.91151642962287482,0.36455821439784392,-1.4708485757488874,0.049120020033152134,1.2520319725614082,0.37087887854099616,-0.27372438828836282,0.019646309954059832,-0.11952200296896466,-0.86709738257793612,-1.0945355478987893,0.56306392403232441,-0.85582672530281045,0.17401928958434323,-0.12375209059891513,0.86704294002608362,-0.29735319005298316,-0.60424753293582056,1.2246531651491754,1.0848074893356567,-0.72687253305109023,-0.47676068780481035,0.24864776996399043,0.4546512232674671,0.9154080237319947,-0.82818223383307321,-0.44908011346703497,1.1126304385988242,-0.18681252383587585,-1.700037505475702,0.4139761302104194,-0.27533114447531354,1.3038263001320587,0.18992164710143289,1.0798017304983696,2.1231443513965291,0.88111843601790796,1.0110202438002573,-0.29446111897202998,-0.37076758296901136,-0.70807537095164408,0.2597238253685436,0.39351181806967261,0.41637397001464849,-0.25127932213905707,-0.3928718625010878,0.10309365894585763,1.1372266160606592,0.022930194639819781,0.4116745011088786,-1.1779835122935096,0.070922936016162619,-0.019707093891069467,1.6608797024162267,-1.4287556114095337,1.8053499148974894,-0.45275190188779108,-2.2214844626432111,0.62149168608371341,-0.85774008143263125,1.4686093659094028,0.28579536440678932,0.49472611405900374,1.09316430054112,0.73279955950829212,-1.3788267531678704,-0.49397770334658575,1.5934353111265875,-0.81601735795977737,0.055197000975054325,-1.1576714400505004,-1.8013532682835163,-1.3565716049115859,-1.1584909343773999,0.12700008880565783,-1.3879663054833471,-0.66329308922480146,-1.7649351413364753,-1.6861939716985195,1.5963409161667426,-0.33142280512910144,0.75993888923597597,-1.5604129348104661,2.1965206673983024,0.20996292106180386,-0.34738085837928234,-0.21204343110900054,0.87823288956054324,-0.63890927095245975,-1.0660960063772671,-1.4857230885485135,0.5073098516324186,0.53300071528982607,-1.1343772483615924,0.35950146515797132,-0.27141442099731927,0.73318300544492954,0.54179087028474771,-0.9479001145678625,0.58033187433911815,0.65165504254036455,-0.1299572641850629,0.7993930973093839,-1.4531261242249769,0.027498641139480667,0.034140436177576824,-1.1571899876094998,0.18025981312555653,0.14816087752855583,-0.3580632064133526,-0.58956532882235435,-0.91789930409126763,-0.68808181686721304,-0.10800275491723203,-0.16233478601657272,1.452043377204878,-0.20889400224387697,-0.59115348811360591,0.17897929854033712,-0.10138766142739569,-0.85061729185461399,3.1871066130351804,-0.53498703363691424,1.1378943901794853,-1.2641258195570395,-1.3057663051341986,1.2060348319923189,0.28805703435004815,-0.23120499494183841,0.5152118187361685,-0.73411007621914459,0.16627276276217931,-0.12542999084344331,-0.51757807417078538,-1.4494008955958317,-1.128685422343598,-0.51239972362238206,-1.2079488200684174,0.24084771300618071,-0.29434636058159769,-1.3914490448510333,-2.4208307158176741,-0.87075063387414953,-0.67431187700244422,-1.4713426537632199,-0.43585008704872896,-2.1905180405680897,0.89940904183750769,-0.20356799270900527,-1.5112334126611211,1.1373446702180461,0.92331965578857178,0.37336083700077277,-0.40123061679517541,0.12978790103565438,-0.20113927418034777,0.11589321708303559,-1.4552975471819534,0.53615861214122129,-0.87403508473449165,-0.12042373225921431,0.15983322682218717,-0.011429400487356772,-0.78806657215891096,0.64046153970825503,-0.57258123095684099,0.76811138284923242,0.035307933588479876,0.36454917144159327,-1.1662927528060349,-0.96097157531275545,0.8749802201329907,-0.85030390797166511,1.1349549848342184,0.13422233316436272,-0.10297737038677618,0.19393548960692766,-0.99926937865924015,-0.59613203570773021,-0.65246830966127856,0.87022683402695478,-0.74453331121017929,-0.73879126488782132,1.579303495148521,-0.52725359435868435,-0.89745947902187484,0.69752627368098385,1.7296023943562848,1.852680102320005,0.48623245576819557,0.29834684034681169,0.63877105252790034,-0.70994261263611103,-0.055641773803277575,-0.035106780733804063,-0.072428176168910063,-0.37044216239233274,0.09670597244332213,0.24368511402969723,-1.0422678041072655,0.19808226893376027,0.85889629412552948,-0.23969686147155264,-1.7528596661064741,1.0615523515105769,-0.64902618826766612,-1.4782259832642777,-1.3627599713243028,0.62301775637928269,-0.54802029917354433,-2.1398508734456705,-0.56538727026100921,-0.017087220393677344,-0.57344030584348926,-0.51434309256843636,-2.2262064362595084,-0.85298616056905585,0.013131536649360474,1.51752121233679,0.57428178298251686,-1.5510792924910473,-0.45099952572103869,-1.3216281274807773,-0.2081770089711279,-0.039684780460665502,-1.3885858202965196,1.5574379661299564,1.6779519886979128,-0.47780982511289788,-0.15783291910260044,-1.0084812524413478,-1.1939118214823967,0.89852261199204908,-0.40007651791979787,-0.34382860495011314,1.1436064992713872,-1.474465468689603,-1.133551057670374,-0.23216365405178263,-0.52663760501905676,0.96139159126977858,-1.0535067641796809,-1.9100596157475085,-0.57953734065947382,-0.45448087723602526,-0.33579565597042249,-0.14238146577561256,-0.97632405144926171,-1.3296493370027074,-1.1599290987645854,0.31835819344180788,1.1562048135372767,0.18588612600097407,-1.2860130634806486,-0.49476850033317687,1.0572426338672858,-0.56679279845337593,-0.55767482290135417,1.3408495536213618,0.62558177806697857,0.87201179809428475,-0.41122917047501106,-0.074202096190734257,0.71208845098154916,0.08739407434493994,-0.38584140422989127,-1.8875257525942239,0.072930823490832936,0.039531644930569793,1.0091324235463335,0.29639424806769132,-0.90012697816160692,0.6276151709515323,0.37996726551423049,1.2965074606164302,0.88655673550447267,0.074123236302785916,0.49385354534648179,-0.24698143599691125,1.7684888780855239,0.0060666526322470504,0.83938423257476369,-0.98883995042674377,1.357033021019834,-2.4741214804206138,-1.3153246986533351,-2.6852396306995483,1.4965638351459103,1.317164920067933,1.4303087025311654,0.16954884532780276,-0.77139208523322789,0.63928809669967823,1.0203083541154117,0.80658572730590361,-0.82516750833701269,1.301847975091639,0.10409968696008562,-1.9367608193130985,0.23046861685643141,0.43039141941489489,0.91693608400465321,0.11741646210883763,-0.47403201418753388,-0.51896511206383866,-0.68791104573857476,-0.29336478676729494,1.4055783825725683,-0.89292109624974547,-1.2130570908209319,-0.020572029890214841,-0.73803680749365963,2.1220326430238341,-0.25208679743107459,0.21462458242960047,-0.58651369501636275,0.8449194132346427,0.47557371544648031,-0.18089792247484837,0.76262488996253686,0.90576824640808673,0.011002090876528571,0.33236154311828708,1.4368233574104514,-0.74264217200590343,2.4541528615344834,0.36783467102220024,-0.93161310075633774,0.20169060900525904,0.058934094062688819,-2.8006007080987949,-0.056133691907023844,-1.0511036233867683,-0.23529799052173647,-1.7879398242191231,-0.2836565411837853,-0.46744426054127119,-0.25802848629537672,0.2044702435032652,1.2385830368408868,1.0711957151102018,-0.23140853077335616,0.15499430182481677,0.57373250053728531,0.20002657475711344,-0.21727026147018441,1.0246196717400611,-0.66667421081145684,-1.479109865845416,-0.69642173955590636,0.82614122450125393,-0.87867356868030622,0.68632782639408108,-0.1621552775100292,-1.4733140796108912,1.5599211958904535,0.17112858440152956,-0.39437786798347657,1.2888412225392756,0.90512571162888733,-1.0720176564952779,-1.8287441229685903,-0.52945307483439896,-0.85134495748455452,-0.45295547519661755,0.084615330650640336,-0.59637680096835266,0.26336257246263056,-0.93909837280107245,-0.91448812114884592,0.4775678014069894,-1.4450832565805118,-1.566392511747229,-0.1037088161393384,-1.2249237464228968,-0.073376947244206098,2.2146560564378097,-1.0358361193818806,1.5094474345037465,1.886973185467117,-0.039711236698600369,0.65270745954176446,0.74237095035195022,-0.011362796090500872,-1.2633500351778881,-1.8290658266667372,-2.4111346680918677,-0.59102842927794375,-0.45182861915077849,1.3866693611025909,-0.091655532128419967,1.2432948420487246,-0.14798085684667484,-0.17358212175628124,-1.0912644540550482,0.0075876107827483165,0.028963923844404049,-0.094263108313916863,-1.0442725156302273,-1.3519310746059516,-0.63134674530637502,0.7417891057900492,0.94326248220773112,-0.61028654466613108,0.36213966194491748,0.21261841115683131,-0.31263034691775893,-0.66606417485478664,-0.70139433518614047,1.0016296522088823,1.1348570714868518,-0.7868889347049175,-1.4704005683696266,1.2022504100039573,-1.0200854477051551,0.42352159798899441,-0.47374872311276167,-0.10408003859414101,-1.8812760179983308,-0.35788163374578524,0.96943671359628658,-0.24109561255687481,-1.2792763064244856,0.23249205263863063,0.12237525042785577,-1.0884665736504073,0.91525366824640708,-1.7480187171519421,-0.054496930069915267,0.36134253127983224,0.2689319904144819,-0.387468911916859,-1.7254145945433155,1.1729663703499109,0.40272654462977014,-0.29551746352861002,1.2190282843770495,-0.011607846422627438,1.3694462392038147,-0.30946592531405914,-0.10307932107197576,-0.046689737991786474,1.0496798759878412,-0.47606227559070652,-0.56880458433800363,-1.1016398594914572,1.3292717869570703,-1.5816087427705647,-0.51392082786571813,-0.089009228876837848,-0.96279891256076844,-0.48435356888733017,-0.046946099852946926,-0.84410399240490985,-0.38571161549262056,-0.75432319453305707,-0.49700486917828834,-0.85298158939740976,-0.35361262753808037,0.18663523843927396,-0.13739921490416998,-1.3105059176435618,-2.2003895456677118,1.456275127965998,1.8874317411475949,1.3443437498719846,0.90362140959947757,0.059920511740731722,-0.060472197378178508,-0.28637462145360493,1.1021424835765699,-0.37002955217060496,0.63203372627447807,-0.42575361332679301,-1.2046424653436685,0.66933706692784101,0.6829898044448397,0.28154990389657963,1.2280102062169902,-0.19474613977447275,1.6202440492813945,1.3101763302321388,-1.8780143867171959,2.535002815952788,-0.45811947999853725,0.024680393935229829,0.24012251060189627,0.7083960671170344,0.39515771483344864,-0.37527593254963243,0.30127094777807661,-0.6060582915553373,-0.35565649887951778,-0.14481894642646917,-1.3742152019263041,-0.13592057107631214,1.9578238966239563,-0.10139076355316314,0.77348635476710892,1.9918921682110486,1.3717772454332375,0.93661707555765783,0.35675096545109675,1.3574249607534545,-0.62701595260829535,-0.71594593923927174,-0.51556862291733141,-0.04178659701844821,0.92437981736073127,0.9461213181382826,0.11235849472625892,0.46454204004974842,-0.051728667037870733,0.017071952506332401,-1.7661864520225277,0.22709978815353898,-1.7215757232732067,-1.0612444339769151,-0.88495907012398134,1.1985843554178079,0.87168937703585536,0.07418048445672408,0.12333602531375133,-0.36963643275324037,0.42894533223602616,-1.073822654506404,0.92225472211420323,0.94302633313919315,0.079199089469390027,-0.47386544123447927,-1.4093642327327742,-0.39364697381068214,-0.21523804525711915,-0.77394055266958861,0.17072050328938496,1.7214735700086488,0.30603028974898489,-1.2035981577368993,2.6653668568391082,-1.2005224088284776,-0.95504693153270082,-1.5430941290757652,0.76781947403649098,0.43144488804967518,0.10615854008681057,0.69027680832100358,0.61155035094233556,0.78395591649605845,0.063298403596305119,-0.69779545081281225,-0.55572698689027167,-0.35032546682055526,-0.41841698544798289,0.52742198770386184,0.16163624079538069,1.3254829106923196,-0.68919823459123886,-0.14388202353611099,0.49156318855225245,-1.653107431983927,-0.4034349051517695,-2.1323893441929771,-0.64556398844296192,-0.052393631282242378,-0.81390498636332798,-0.54491353953528177,0.39119211435378298,-0.40676368453507622,-0.79494405468280893,0.37019981777597827,1.0749610730906898,0.14656122658453391,0.49302993099891096,-0.39825199424748242,-1.2538042471175059,-0.35501542019941379,1.3638989125939323,0.74885004977244363,-0.59203233526167198,-0.055584991638225105,-0.96131952851404168,2.5514733567081107,-0.37463717406954067,1.2624386207005298,-1.1553190784200851,-1.1071634508332422,1.2714753149100471,-0.63009737625644135,-2.2152263611786149,0.3152685291288852,-0.89272560348695773,0.71931355679440112,0.80885557965566401,-0.43555151182995022,2.4689845241175505,0.016092360989283676,-0.43397466189244982,-1.4593929772835912,0.014096530380401833,0.4300600786585565,-0.78301713672111628,-1.9147205939797542,0.55241847568562974,0.33115881815201792,0.47721970901415739,-0.75833365393584362,0.44274286729202378,-0.86605229491284086,-1.0291491372226593,0.92964027126602788,0.49428363251207574,-1.1737426023310711,-1.097431246659988,0.539590846538062,-0.79129854386720777,-1.540398821248925,0.5077603660579163,-0.65232756647638557,0.58014521001391783,-1.3191817799430126,0.25787253002420002,0.13309506046514,0.12594977518125128,1.0718466707559862,-0.76834365629872181,-0.86610154595094369,1.2124248317922044,-0.5297223975581371,-1.0067850506308367,-3.6230803583450721,-1.0518788249082884,0.40711356587144493,-1.4549027099449749,-1.3054174527159588,-0.46450687977263705,-0.40405515961031513,1.0006165844762887,-0.062101025324164401,0.026928024184269192,-0.66697647821189776,-0.85109733138657151,0.56204234550715393,0.62888314363106268,0.61186573430585234,-0.81914935247969134,1.3694899532456335,1.7215828918973235,-0.24285044920285465,0.62641101222879259,0.91649820565837692,0.67689011651747433,1.1485266848913314,1.9601775553142871,0.55849560219827843,-0.56532274214977973,-2.1351499597931092,-1.2208746532236598,2.0113872211751063,-0.25625308304573979,0.69130360809910374,0.80302681841743684,0.036073905111871911,-0.27627745075167531,0.55581016091504387,0.14893392751996859,-0.74748043892929883,0.1885553661961894,-1.3729995271616326,1.4072150590261776,0.22903421157716242,0.5963620816236348,0.41630980473032336,-0.012187616444065807,0.47961575680100144,2.0485734415808134,0.2620043398243489,-0.3352237394926143,0.14926650058620519,-1.0402453774163161,1.7821064963428981,1.233930517015613,1.064241134473803,-1.5289121442274427,-0.89037153656941526,-2.7538095216103939,-1.0546683040737455,-0.35102096549381412,0.87139241909299447,0.71482057949917333,1.9640176359215362,-0.98195008666592898,1.0591879878848938,-0.28799040486295974,0.60461717813159988,1.8020970942191947,-0.56497008353710243,0.18523374963622863,1.4601432596439783,-0.9773431431387265,1.1480198598834015,0.68057194955144418,-0.44676357957179696,-1.8169298746382538,-0.72037209781728107,1.3687685609080051,1.3230010236705285,-0.4499277316225771,-1.3722017759133933,0.039519201293207538,-1.065075374627563,2.6517187989475084,0.17339791083334738,0.49468317761453406,1.0387478802998149,0.19824742510414201,-0.33472239128068088,0.14958457349202106,-1.5653051041485695,-0.23325792814860138,-1.4212092579196107,-0.70854223282779871,-1.4389576179003398,1.5689807468476373,-0.62641587825693412,1.2743445941853446,-0.88720795315769496,0.78729171377228835,-0.5826168043485449,0.73408715519908085,1.4745475891575879,1.2768627795212579,0.56538375104549032,1.2385723318089508,-0.9438724339322585,-0.3126956372774517,1.607149887079901,1.4897655805886911,1.5521755764594498,-0.006127548140139427,0.69749808237390409,-0.83257689776534671,0.64512142967956099,-0.86815698110393036,1.7892240114390847,1.0600135252364775,-1.6065667475209728,1.0898090553900437,1.0262694088786279,-0.45281154539528523,2.2915771929631683,0.031007062789283963,0.59110841980548157,-0.81886619932835858,0.30870540344143971,2.1598960211173504,-0.22361766428735191,-0.13469865399290185,-1.4920907156284495,0.53395975329755818,-2.5968235614478221,0.68214071870668069,-2.7197714993316517,1.3926042820998115,1.2086070093547054,0.29621309667366752,-1.2487232117681033,0.4249618409667234,-1.165469703363383,0.48015585413237344,0.013036666250175747,-1.9355625985472231,-1.3866524593946321,-0.28801817157123999,-1.1094199802140485,-0.064297251748069176,0.42001884534310746,-0.93956776554626142,0.049092581198874136,0.25024590293626864,1.1756538553364491,0.39847667526579156,0.59665004802509702,-0.01135625626571423,-1.7430680237890022,1.980844357941703,-0.72457474917296294,0.56699396453516648,-0.99563216580372693,0.28291087287621802,-0.88472899640180513,-0.91930366844685762,1.1421037312264488,0.23248490371731267,1.2601272082967681,-0.38056043423336933,0.50442556217392376,0.32068457290768387,-0.87657959130499385,-2.0301489938377677,0.79586034157027485,-0.70878336528016672,1.6225841712992253,-2.3086313916004424,0.3968118658690824,-1.1649266628818395,0.75181946932004373,-1.5944392045203253,1.0130479761550857,2.4945039670468114,1.2731865861093119,-0.10310771542531896,-0.042464872411751113,0.66489044545509224,0.5749950780535269,-0.18740022102493417,0.61302053549912539,0.59614796700103412,-1.2622367009878146,-0.71158593883944488,-1.5552134267235989,-1.7804139283158198,-0.84956205242928629,-0.84267791640098977,1.2125356236597149,0.88556431532701885,-0.015570629053090082,1.7600666060064794,-0.28164839706008005,0.85532584582772486,0.55604014280264813,-0.21007217411603582,0.79374173639467593,-0.45463354332728417,-1.0494105190252561,0.87850778397008289,0.39671024277760103,-3.2794186262041101,0.61155388946028855,-0.7443593542856527,-2.2893950510962764,0.34700182020966069,-0.42450312892453146,0.16786539633246808,-0.29287598913610063,-0.14565086211727737,1.4500405421586922,-0.89563401376048168,0.91195886217983435,1.7082342821015528,-1.0724500242064927,-1.4416152915627263,-1.6539507128175501,0.16031552463746268,0.65124628541594476,0.65678662360425411,-0.10805215092842065,0.63312022913002441,-0.24541264947782032,2.4142492772552737,-0.051934424124847771,-0.97772980955595701,0.97000765612352768,-1.8010590734806025,-0.62165094493887041,-1.3928950820962673,1.0019409222828597,-1.4567739048524073,0.42194364556529779,1.5276869461508609,-0.76693280960303245,-0.55429412070417683,-0.12326805126451609,1.2612724802058066,0.12799259843089378,0.17670126059050725,2.0554866874955455,0.27976358657470762,1.182599000504261,0.077444833759182499,0.53467870397355477,0.51475801762001805,-0.17417165375363108,0.44591933569222963,0.071917268818015676,-0.15011115245415924,-0.69876311390311185,1.4131228505832691,-0.96854671078262056,0.37855371586814768,0.38353587762041641,-0.0059543689878943902,-0.46274647938372981,-0.67401295187816623,0.19517975519805203,-0.46700588727699677,-1.0248321892142653,-0.15133978291560038,1.1875444801025117,1.2988658591521234,0.37767684661339734,0.56236137516653029,-1.0133131837859046,0.71402289975278022,0.66665731434117848,0.72991155615394887,0.11708923448755675,-1.7945799900819623,0.24556619207586208,-0.4951238956369054,-0.95373863326010822,0.74286210627491112,2.1426125617586447,1.2587805007132382,-1.1724605580970087,0.017544817060210108,0.55724772467613559,-1.3166140154279686,0.16839329610726544,0.084525598409252334,1.279880954842477,1.1323173938938298,1.5935149951832972,0.72129594414862008,-0.24257773865156465,-0.16904960860974458,1.9195362610909563,0.82820632254044657,-0.31857330159650049,-2.2084725611913898,-0.26718132252327759,-0.59256267949498631,1.0740093972159404,-0.32663672207654515,-0.66486187818823317,-0.07549553198884093,-0.35539597441457221,-0.033323584661376554,0.44728641335390096,0.086295248737479319,-0.51838852078623909,-0.62864671528114302,-0.54150187321000287,0.46563923756991715,0.95816120190866416,1.0621441570487562,0.83198036128549557,0.68595881564207661,1.080703149561375,-0.40367229395293813,1.8388345571107836,-1.8027821381933693,0.43444759506609226,-0.55642673288155919,-0.97450972886618858,0.12893291120984979,-0.1021406700853793,0.90063475434133877,-0.83232003445150493,-0.67499816685554292,0.076628350987562072,0.65397027562294152,-0.52059687118852138,0.36247654032123938,-0.79316847816308744,0.51451152254010757,1.3022553324916639,-0.2284591376240479,-0.97522620293054707,0.2584701978510901,0.21243399207015801,0.12821244111209945,1.5876848961600791,0.17225674932127663,-0.43030645427351155,-0.9827976499488863,1.4306127724986601,-0.99259321879494355,0.2726064642632241,1.0283118382895771,-0.93350797325372881,0.64045137624804926,-0.78470255969123881,-0.2854225195931126,-0.35384344692829456,-1.4826006880441436,-0.46439408031739182,-1.0274901611746325,-0.48896980691082981,0.78120334554171766,0.058589747515773852,-0.03110267709461911,-2.6785272003433498,0.32169030680218758,-1.0061234312878269,1.0556439003341784,0.78251629179601623,1.4636893768801604,0.14707407845890458,0.5908889831573545,-0.07277142269450057,-0.020847271792406717,0.57253641206848482,0.30838497415758104,-0.38023406260659581,-0.91945782209287097,-0.18089983784260769,1.9902372488464217,0.7873331653019463,0.85657792803614941,-1.0005484395328432,-1.8255529695174202,-0.20797349291926698,-0.035066476447275022,-2.6681953105640042,1.7695088886968058,0.23806025870467953,-0.32038971796210941,-0.69472071433920579,-0.91718977876368546,-1.2942975173366118,0.3222316620808951,-1.5305507834887091,2.3696788593289222,1.3946979302703419,-1.8194257717308533,0.64347439586089861,-1.8277318601169887,-0.76060345257304562,-1.3702638441790864,-0.88032573551026871,0.085883197200388506,-0.42093101536905969,0.41147634853759479,0.26812456887535119,0.51803359611515132,0.78045179521557084,-1.3221975103214951,-0.35269194841058071,-0.30246162009193395,-0.35065663660963287,-2.0257074498788761,1.3754526362121404,1.4558589236665087,-1.33353962253058,1.2951478921291146,0.54333335289937901,-1.9830496831032229,1.4608416581435981,-2.1082575845371099,0.33945605154055891,-1.6225140413937604,1.2678146111368729,-1.0213904841729518,1.0324369952448311,1.3294856421575216,-1.0545551637487689,0.76119139683548154,-0.2006581658174065,-0.34052926882861306,0.7295404582177496,0.99741320519224508,1.0864225265639336,-0.84471236044869979,0.062163618682713258,-1.2918121274280183,0.39355821078387793,2.0339842703500985,0.089460066020904561,0.65501152388105044,2.0942157591884882,-1.6694833116444208,0.87214593274002283,0.53607760464851595,-0.67404489712824101,-1.8649422012177095,0.46509196594678709,0.1440827424713646,-0.44628568334705188,1.1103088233952083,-1.2522948186460912,0.62764585972281661,-0.050400183392937427,-0.095816410093370788,-0.33289965994068593,0.93352466977497239,-0.37275377028355711,0.13870463743941397,1.1816930981020337,-0.29711761208408749,-1.6588770151630945,0.73477990433789531,0.54980763469444638,-0.70679467157006759,0.11787095158086863,0.86017162373688039,2.4897299805502691,0.77314239504312188,-0.36303106585275191,-0.89277587121401658,-0.95088636636199231,-1.6734938088059925,0.14894574410934522,0.67563625565629848,-0.40336877418235723,-0.8045225315276604,0.99681050674895055,0.37761618698074539,-1.8427977977074204,-0.16815595107090822,1.3152076170714622,-0.50345992931606343,0.8079845286803149,0.54689366049444565,0.31878934700459094,0.91346177136675633,-0.083864953146283255,0.66301197700959325,-0.73736370788834671,-0.14127976312016213,-0.46021980005963642,0.43670205247709198,-0.36658495050209366,0.41187170076694496,-0.37750417794502067,0.77597490825612336,-0.650898826916673,2.6733795494549,1.4441596122587286,-1.7855066096072432,-0.69985885114444413,0.60025735250356482,0.057332368497258264,-0.60051949315664643,1.669634920449548,-2.8988016358545527,0.64002246179371403,-0.49273937962178799,-0.093283082656369309,-0.6447851528796904,0.33825846774310397,-0.19986628188650379,-0.48832257912606153,-1.193543717563315,0.71989213960303911,0.098904387535690003,-1.9456512293596935,-0.39300928070440438,1.5808908792603313,-0.78167415884992286,-0.41987853163260774,0.048702832950641789,0.34745930006486853,1.8665376329972398,0.62200706135347561,1.4536114174260117,-1.3525130723202117,-1.0693761259190573,1.1123768615453569,-2.1090708638600701,-0.6199013547864658,0.85527266179153971,0.42867576398437712,-0.74179871057527802,-0.97376978470608799,1.123677704411723,-0.70520034170280177,-0.51607687144453562,-0.073815794610626095,0.11370329604621709,-0.94126297192443331,-0.9521220820088987,0.4219269610025303,0.045983949637640097,0.50954715166340125,-0.70619116149583749,0.68331162232468579,0.50351457176190617,-1.4964742085340297,0.49178112517442457,-0.96320719835735602,-0.3359690312234937,0.58164851377231797,-0.42056893737361428,-1.6986493938137799,0.95245349547035263,0.51666436895900425,0.89543627121567981,-0.78844365538409245,0.83709354322378859,-2.0762464745682534,0.70253015141488151,1.0471740419970756,-0.69819563895793291,1.2734126019513892,1.6177418543336437,0.72141041468815759,0.064441917426240836,-1.6584211186983944,-1.418270677535068,-2.7061327116487677,1.3878946889483039,0.40617737923623104,-0.0089220673091502424,0.16233492743134698,0.90971188591422936,1.1100261582486013,1.542866887166932,1.3896933455624756,-0.94744141534889059,0.23831205092546784,-0.83054578170879967,0.70896732193621637,-0.014781242320871487,0.72422163211994262,-0.5154062565567693,-0.2956375289529794,1.7760387638529611,0.75746559292149063,-0.12699614999837702,0.65887235530419597,1.9139652571692312,-1.6531881997850357,0.68304985894148496,0.8348168650644594,1.3529861743950282,-1.6122787208634817,-2.3588532090177239,0.79218528875318017,0.83983218680069704,0.31932067784977886,0.70151386212771494,-1.436964078524998,1.5716414866341741,-1.9568786436472987,1.2749423889070561,-0.1307684098201419,0.81489299162038775,-0.94050974627083173,0.93414347015199972,0.5124269916394516,0.10844388083348415,0.10413455144642074,-0.093499687040714055,1.2272875997112964,-1.1943527079927367,1.7921935205292565,-1.0012611242278806,0.068998701260587436,-1.559301773900466,-0.28260967816097188,-0.31598042236013024,1.0901616653072446,0.0044138510055767273,0.74005294024039592,-1.3671942077766277,0.51360160253506892,0.37314866258105356,-0.02432958806636425,1.4525285850794643,-0.37871550389843633,-2.4299551970294293,0.83215992293611796,0.79877736703473756,-0.58057986143287987,-1.7677069567437029,-0.23374544242576414,0.42310565208108308,0.72482254758822773,0.70160715019368869,0.08049242270932172,0.83249775853408203,0.94670302171410181,1.4999580632162648,0.47479765339955837,1.9708786304296564,-0.9883536015686637,-0.19066770585283244,-0.37908674494145322,-0.044149148341474743,-1.2380001757678458,0.28060532673257338,1.4926486667766181,1.8257889179275786,0.15704550892997624,-0.36768922482591554,-0.35781589963792554,-1.3127133894599334,-0.67921173331957529,-0.091583624733778804,0.64759046467404457,-1.0095741680951569,1.2871778830874601,-0.1971302152785856,-0.12580318951204675,0.1341675319524008,-0.014481515585053527,0.091965047879871947,-0.25611773338431876,0.45798128608358041,0.79224726035356896,-1.3181913007245432,-1.2476345693670314,-0.10866779722333775,-0.19751275538950058,1.9591819914655038,0.2378837494972442,0.57708098010303366,-0.31349670328517815,0.25651499606784284,-0.41411715077547862,0.27002547766827184,-0.060533532698551121,-0.52894620205098597,-1.0440286397256948,0.44504437815974862,1.7056428538946242,-1.5394722277122534,0.71563919755667704,0.68291711769037433,-0.97691656044750297,0.87940750266684931,-0.25646137303137928,-0.010907013110604104,-0.7990811387157043,0.79443490752312995,-0.31932369955315631,0.16291013179056701,-1.3443386780250242,-0.29724898879311457,-0.76298277357030175,0.52797939997032051,-1.5949243708195924,1.6333317268801599,0.80272102838302506,0.40940206130146106,0.09389389592759062,-0.36962955104846734,0.53588723766729685,0.10611921725515901,0.25643696725140486,0.60677696493136535,-0.40534884784669961,0.1008819653472568,-1.9513791642112699,0.29797359922782346,-0.4679872134219375,-0.69890433315838785,-0.45198686572189434,-2.0699328139337281,-1.1853773238016496,0.24049445889855631,-0.1303338038214984,-0.6977667474331406,-1.9003111180162011,0.76100827209006938,-1.2312921975637321,-0.83213929229891048,-1.6282696313980647,-1.1449291737681437,1.0379376753410119,-0.51189498857861238,-1.565364754653221,1.3122318980632075,1.1073524961182581,-0.960983194270007,0.15330687890929928,0.96689471843210228,0.070429916734099277,-0.976640711182441,-0.044151550576227619,-0.96863777568707676,1.0558846391212675,-0.34954406324654669,-0.59150522758647051,-0.17682022344766066,0.94538974356715055,-0.27276775784984303,-0.078861798473156247,0.52907819034382897,-0.57176026644708722,0.40850203734988894,1.1445158744526456,-0.39971581806910289,-0.020011885257061601,-1.2367973642499761,1.2263886226303349,-0.40167619483816719,-0.37803040592090092,-0.54697286364492059,0.89581151390540525,1.7724335677419192,-0.97995573782099921,1.0442737514492444,0.50611895918908978,-0.14080644854424196,0.58328311427673452,-0.87593821727403487,-0.68205401454067938,0.4934896226781702,-0.62055919501031742,-1.2336301605236084,0.48300147241157404,-1.1996086460276605,-0.34867123824075635,0.74982811764296331,1.2423341164501949,-1.4418926943187369,-1.0842901650352157,0.28474557896828928,-0.049088244108835256,1.3138129632902067,-0.31814880395666939,1.7315792523921889,-1.0648570115675375,-0.65679367513309062,0.96384321612081347,-0.69758329654824414,-0.4290499625087239,0.33052273054542997,-0.4527266808909598,0.34424687015220806,-0.23730289735928903,0.39574552546733166,-0.22626161991911148,1.1325186014212645,0.34173107034932976,0.4013587567159706,0.06176170608310539,-1.0555667806257429,-0.5346276623846179,0.88588469994066876,1.0194185605140678,-0.40089142126664795,-0.039967129390244938,-1.2557472516387598,-1.1607640051011296,-0.82787641297623371,-1.4758020098958597,0.35777269605169193,1.5209025315321949,0.87293046694891541,-1.380561882751671,0.19244013610931618,0.62914291751983531,-0.084310053267448365,0.11698350936176015,-0.012663171468622262,-2.7940297295013226,-1.1108342148808976,1.3263139828317538,-0.65332823604634604,-0.61724348822794706,0.097885403352470868,-0.139115768840292,0.18267745805553576,-0.81399364722454937,-0.49404287078151538,1.4093765889809222,1.0582583022842913,0.20742820772873885,-1.8684081518566436,-0.63775321734751111,-1.2379972994041384,-0.12631594903849955,-0.31093269550045777,-0.0021142430162866483,-0.086703191246947905,1.6308445705847034,-1.2534849106311263,1.5991469167399566,0.79636566799901587,0.27949513168633239,-0.11874832907424925,-0.85389089944185181,-0.55271480201533429,-0.25992548843967256,-1.5170340152445378,0.35455477470139668,0.74993384702597388,-1.1390331856766587,-0.27828900214409763,0.35915242891995269,-0.88155092903638432,0.20772859974380412,-0.71321998194967695,0.094572337413137308,0.96914343149443938,1.5448513503616246,1.4540396320594287,0.26415617590343859,0.40091055154635302,1.6885269412374462,0.52978533750711587,-1.2310377771357393,-1.6427602980062705,0.27739514736841375,-0.15879550665292158,0.036325138008147899,-1.5387352227947331,-1.7242141189831555,-1.5426116156280285,-0.9742725929869821,0.62921793575738316,1.698505365937536,0.66893475912154321,-0.40090868217822595,-0.75282637541805697,-1.4389393432212048,-0.33939372754080688,1.3808485027356876,-0.19427129933824619,-1.6113291442843614,2.3484852275832377,-0.24689466183099429,-0.23417478557329557,0.016623871141135081,-1.4924855606833982,0.14785548598630496,-0.6183797273324726,0.043539060658806472,-0.22789427563526496,-0.55207313140963643,-0.78284953575903449,-0.67588734925872596,0.47149423977329907,-0.22982601063604527,-0.59367589234280194,0.70024805506316889,0.61350868238549239,-0.019678206329415304,-1.0703336939242669,1.294760753894437,0.45082313021094556,0.88624997754623336,0.11829028134427155,-0.20288623570589079,0.12019055322784998,1.2354773372955146,-0.97565016367039381,-1.5652861838883967,0.44933622996473993,-1.2245444872319555,-0.018697426534722731,-0.31234947144183234,0.84656236222713821,2.4531707718893565,-1.0355017712607038,0.35852419017465798,0.073484574515926965,0.0042450920749213224,0.29744464214738348,-0.31181473056422498,1.8344913363766293,0.41473734715795785,-1.0849833401324487,0.42510515305992846,0.74581372000770851,-0.47589014283573899,0.27270694876109725,-2.1612982381836847,-0.28501270985566818,0.66022121469296313,0.074622275147493755,-1.1549727455294463,-1.5400066459762753,0.73032130575552845,-0.16114374199960016,-1.3962661124471485,-0.81031846172603406,-0.25311207922876161,2.2523629317748886,1.0218594733112207,-0.76167180148624947,0.4188832232732197,0.50367343334213022,1.3557584011570523,0.27434740117109652,-0.96367583889248365,-0.9180459755292576,-0.26476630556591202,0.47625250398461566,0.25546403651899335,0.15809722026579812,-0.5825747911997774,-1.3986456510304639,0.40503120977411017,-0.15521654539040911,1.5878188328112883,-0.21909228332996855,0.31203562720142769,-0.52915188863013407,-1.4991414593246908,0.33921539342843471,-0.3416297343273082,-1.081806491187953,-1.8145393083189016,1.3116541297287621,0.83683437292318796,-0.64650454168499671,-0.342363690986629,-0.67739900452969704,-0.11412903871141582,1.0015326272669189,-0.38572227785138752,0.7937576597836401,0.17584197490269762,-0.5180035112347342,-0.38903445614076093,0.29731895066304131,0.56308751418693015,-0.6223040380261583,0.080834741513216693,0.18951665537045309,0.17525848903362601,0.46537379480637786,-0.30516906178996267,-1.2130610465893499,0.35545280440812282,2.4155539157095758,-1.9452240449244391,1.8350485184005558,1.02626450863722,-0.55811658555627275,1.0284898434663809,-1.1809727231890583,0.15029404401503518,-0.042759088406751418,-1.3803501823557771,-0.014141344038495129,2.4101851819795552,1.2219826461568752,0.80450544675929536,0.39632247113225288,0.11758244975863617,-0.97733705341032306,-0.87753087704176358,1.6163371932922532,-1.4611784588062491,-0.67748569268973946,-0.93689498626485324,0.13752619947338954,-1.0846789759783295,-1.2588565927191842,0.13975191229897466,0.12945552657758735,1.2854036151549293,0.42295414002437071,-1.0511842878096793,-0.68132252365332091,-1.4067524491708479,0.72215358414100161,0.36230275561063163,-0.92248044834601794,-0.45940368091926714,-0.76609414688197042,-0.30973604410518341,-0.21961939591476443,1.6017709112834069,0.42554451281924377,1.1739958816139451,-0.67757841096822069,0.4925246369098123,-0.026816627462707653,0.15647004994663855,0.85758082708094863,-0.058147066974002064,-0.057978810282469623,0.55410434025924593,0.12656780691042427,0.83342016562236321,0.99091498917334964,-0.23774886757696184,0.37173159813180451,-0.48520229845977514,2.0106800671754601,-1.0094059203953225,-0.94860723318278817,0.42466513105351444,-1.1216762914023084,0.1017948998763793,0.5730625743031208,-1.7050789969474776,0.48620185479405409,-1.1743965989884408,-1.7947468080630853,1.2604646870548353,0.64187532337875886,0.32320854563620682,2.3452793674479979,-0.92978685721788801,-0.4896006619518557,-0.16745843855160511,-0.70470181937350784,0.52948426755995703,0.93875247555886798,0.29454195682211409,-0.00137127134084074,0.47453469763507489,0.20435054740972464,-0.87538486974994012,-1.7387351660615389,1.7468959705522278,-0.03194499090283634,-0.33473890761961556,0.49749688351054561,-0.18065030746426786,0.42782389267360504,0.17112221907999953,0.026525779751286362,1.3707501151908152,0.94097152486419355,-1.1688625547850624,0.98575219607735232,0.13287799714421267,0.23982959213734276,0.09641182500665188,-0.21321057600922455,1.0448063096508338,0.00034436901689894895,0.65029940726759838,-0.38119961030517358,0.086743395208937424,0.95411850900606165,0.62919085586141577,-1.4534578612135693,0.75178782459562932,0.47641869753457089,-1.0107190672034405,-0.94700548612301538,-0.25228431514380145,1.4462027981645242,0.7127912632013641,0.98153157133388391,0.94662431502298272,1.9890005835791738,-1.4648294149384069,-0.37577311308728195,-0.12952850275106703,-0.26823285768372701,1.2107326322038041,0.52160308501279573,0.80537444692221383,1.4296984634400065,-1.7758225927061078,-0.60006104272371386,-0.099716920722101532,0.075457902409865635,-0.021340255124862342,1.053642771678176,-0.9717321641289951,0.27227457230997776,1.7862492481154328,0.55257975139647564,-0.69626064221163519,0.35058271622785625,0.22062880496557563,-0.49082868658975259,-0.12127637529736039,0.47260158106280092,-0.053130843641694563,1.7556127088869822,1.0999964099148245,0.091042397467727174,0.22256052064013734,-1.1413072071848305,0.84352778279976359,1.3405886325856871,0.71944007192338977,2.2994623792570654,-2.1617164591742828,-0.64141244584769297,-0.29144323813184708,2.1863896885988194,0.53717458060470502,-0.42110021127186587,-0.43191111785272501,0.74659798649200382,0.31404395595572387,-1.1196840084766961,-0.88367573114926834,0.26139913839039058,0.14370383546060553,-0.26729219342850702,0.59057672250886428,-0.25496070446293945,1.0749718953464118,-1.1473966357164513,1.462647843577747,-0.43375254843424921,0.999043210001062,-0.13612080249977376,0.10589889363909315,-1.5602163769316268,1.8165792007142805,-0.72014364400681108,1.7010036797719894,-1.2164359776249989,0.8741003710898797,1.1780209465487643,-0.3610671111645784,-2.1609733800844673,0.086269250252369728,0.054009159523985342,-0.63695911175690012,-1.7346876453704243,-0.19400457165086413,0.73086841330637597,1.7295591992274817,1.0753284401542225,-0.81923972550749657,-0.28025163981639467,-1.911650128550854,-1.0292806384089346,1.2569935173218389,1.9036518621367258,-0.27751116318502367,-2.1479333364289794,1.2404916527710668,-0.29940918666420197,-2.2528901668966079,-0.58565151462381704,0.21945393204653726,-0.57406873622868693,0.070644895552397502,1.3085594837389163,0.78813002349079597,1.2483193829477723,0.94601149588994382,-2.2844870635723837,0.71797990910906506,0.020875360050442566,0.57283044092243518,0.050146062922183335,-0.20963671635364833,0.49482936722759285,0.77966188346423404,-0.60294445834748633,1.2268524830281811,0.13693461639270338,0.35988101850399645,-0.59035574133848201,-0.36054346715622371,0.68469151228133529,0.090047454321381434,1.4591926897488408,-0.23507289058454239,-0.3295745615824171,0.41457515992377403,2.656781754845905,1.4801915053737693,-0.58908719614199567,0.74455457706754358,1.4301501024337917,-0.26696078934516349,-0.70805399676027536,-0.94880818717909365,-0.057731921037819253,1.4611759354319747,0.1197993659897874,-2.5597679766210826,0.44181224872830865,1.4823989789233962,-1.0580498223962445,0.10767781997879719,0.61084218935168588,-1.0209348568860046,0.33839488996848566,1.1228745276740344,-0.15797489182071739,-1.1699189972103603,0.26099048533512675,0.43340906517559052,-0.18874659322240364,-0.57737823597487503,0.0585715305617871,-0.17116409731972071,-2.065761462114029,-1.3644849877452769,-0.16429169167825652,0.44113341980232484,-0.69363142644431397,0.1939987918700635,1.4104245699631339,-1.4410426268630732,-1.9731333167190499,-1.4852360159617353,0.10967653096225841,-1.2616553948175455,0.14310816760981337,-0.171725149949016,-0.11977248463261274,0.58314491393721213,0.5369276887576907,-0.10146036134602979,-0.10818879313543611,0.69746435960018827,-0.24136311959727197,0.70177331018552547,-0.42355446525452112
-0.30416199196099164,-1.5903445270049947,0.11396328274807349,0.05812171449511043,1.148805177725549,1.0318719882378105,0.68891252582100759,0.23809363406369444,0.56685889790750021,-0.39659172744666932,0.045235219955616718,-0.098056385313465111,1.5496367095168466,-0.13778448743980531,1.03843827175396,0.50956125300641142,-0.39137797802573665,-0.72651815136426301,-0.51698438022679749,0.88192189971056723,0.075707446656467503,0.32085766490851836,0.79669118208960066,0.68830353856663029,-1.7889274710617429,-0.20550576431191142,0.16702116928008773,-0.95730985488392006,-0.65012210120855662,0.11086216912837507,-0.068270887342219977,-1.6752275849119256,1.1776592779029318,-0.26798875742786954,-0.5084398354484766,-1.2217514632665607,-1.8780485184031646,0.49862707545773727,0.6519097807230877,-0.10823544810298276,-0.2595008816356314,-0.0085769904393139321,-0.40654655254786959,-1.5530675150028235,0.80288039009757195,-0.015857871071692852,-1.4280775258904803,2.1625227301825838,0.4619326240766618,-1.4245075409512176,0.70103622287371681,-0.97810501423511209,-1.0990339826101725,-0.77049881174464785,0.61105049846400061,2.6172747829393406,-0.15862817196978202,-1.8298790828273168,0.34150909180971212,0.47137838855921987,-0.22141037335570354,0.86509824739777685,1.2455786182301551,-1.3409614402819978,1.0233511519146803,0.89921957419056997,0.58928904289715611,0.6365641809546434,-0.46540371407104214,-0.97364263263716211,0.45059104635392155,-1.4062174923870157,1.1877447198853099,-3.1599764073788692,-0.55653413606101354,-0.016645646667743878,-0.23216699433267776,-0.61339659174700578,-0.34585069070887448,-1.6026142013629152,-1.0169834498152199,-0.62231182617770286,-0.32330389359793743,1.6717500040592455,0.35797643194843293,-2.0503696219047161,-0.01187826418319036,-1.22699084661796,-0.21183318819235897,-1.6252379054043655,-1.0788958013473242,2.701635849454846,-0.17067236815952549,-2.0781950338086004,-0.35837161482666102,-0.13328295217139505,0.55073485958992396,-1.472486849308063,0.65617115990783659,0.24437248193292976,-2.6500827822265149,-0.67405012110423135,-0.19258053763109173,0.6760700721281151,0.19554290839139185,-1.0445584375609416,1.0595554806358161,0.16491538785218857,-0.089161571459079936,-0.11016023181282925,-0.32133228216734305,-1.752837245788271,0.41927685869111359,-0.62326534489285934,-0.64209441406793777,-0.37828725375493066,0.51731297672472831,0.70805813805949624,-1.3022149382144261,0.29772094558117668,-0.82491201136480374,0.43680913414018163,0.10681026775475176,-0.53181146227124731,0.13061461096849891,-0.40822043514223311,-1.2691946208185099,0.83130454976239088,-0.331331140899706,-0.29489420986420933,-0.56869027243590564,0.95910652583389377,-0.51879333617444046,0.026467330714575799,-0.27924263698478385,-0.54291243585327154,1.011913008511018,-0.36252589608087171,1.920112774467678,0.86910734998431094,-0.93038690662294932,-0.037358557632860272,-0.47029652675409034,0.01715484080214191,-1.6054863541636566,-0.7207541934480175,1.1678450313049766,0.7703983232335565,-0.72869531099672458,1.001402717936057,-1.604867779546594,-2.3073310192252192,-0.46002010558618789,0.26348516897662627,1.390482376570974,0.86267680094806931,0.076848168774014958,-1.7997889832220426,-1.399117428049883,-0.37003893062539611,1.3564232998362742,-0.33580974457232038,0.12474875622627514,0.73189363048688327,-0.050438949251579622,0.28086717210424039,1.8480552671034811,-0.55321359310345641,0.69827902544312059,-0.18034682426909529,2.2750014150037523,-1.5793239107695078,0.34184043409989212,-0.092149855872582495,-0.78254615271632022,-1.336679524970134,0.9521465514188634,0.42777235453236967,0.49124545171197503,-0.48921392375653694,-0.43261828142599207,-0.20837743894569624,0.41207969209226913,-0.57147901566318671,-0.77984679558334691,-0.050943944211680012,0.09052590864302669,1.5300778019324683,-0.66231197294927302,0.062227105474557225,0.93271919204531051,-0.41161233556033522,-0.72657300086325538,-0.35403275382526711,-1.5044967863304595,-0.72175083150436081,1.7010720930172569,-0.24548759895418198,1.3062681045652227,0.14249444539236569,0.24639279964253596,0.21227148030232043,-0.022928557503779957,-0.98461631687202111,-0.18656029028502039,-0.35792543909589492,0.16689878493740681,0.47553125091115761,2.4778284197116567,-0.023827501528156856,-0.77043345490244608,-0.92770116014102499,-1.0531496464340613,0.35676200183465917,0.27088728920340233,1.7459121859479467,-0.92294992378448792,-0.31234189020591285,1.0862178423350681,0.46485821655831472,-2.1747944856714221,0.12029038925746396,1.3634424311306526,0.32202543715519344,-0.032342599430613655,1.1792147651376781,1.0211476559746913,-0.24847041252693933,-1.2665077731298628,-1.7154004740815494,-1.5739015819911835,1.8188536259002226,-0.40219073319736925,-0.70724249085923219,0.39439060562808803,-0.85542702423573902,-1.2804623419887513,-0.50926378943034245,0.96149258012033634,-0.76485260410846723,0.057479374379493749,-0.47750606806197687,0.088122710545185445,0.40481454630925567,-0.99322611568778796,0.066408715694607795,0.4895478405779532,0.26979351475291952,-0.77400165732178117,-0.61422942607519582,-0.40297268515887802,0.51641234885183707,0.30889279706067502,-0.16751881995655371,0.45473114770885387,1.3632434468554717,0.98643770698680511,0.47005589000772841,-0.57839534909207913,-0.27876238525824659,0.55086632646104872,0.81174213739468482,0.33689022413329434,-1.610693108400894,-1.5210330972363957,0.53451611950161859,0.53985099004027282,0.50716802278498785,0.95077517331432437,-0.48224315614445112,-0.31222562183567898,-0.18543498447233026,-0.96782762174870962,0.080834799502970053,-1.2356839575511989,1.4087455428599072,0.7718625104329353,-0.47353523072869269,0.84455039437377399,1.6447200409863005,-0.062755300789357912,0.69517051667436303,1.6014128329176969,0.98013790183252458,-1.1484947977317315,-0.10474624742986956,1.9599685397760962,1.0663111226408997,-1.1903616175110414,0.51170906604246902,0.36256061968149023,-0.38565687874312377,0.27242070131436602,0.77620783771127833,0.75727599136573809,-0.13510776798829624,0.65903356945592817,0.062696993887867147,0.59147194472417564,0.31401640903341471,-1.0870216191722402,1.8703444770631563,0.10576098559715925,0.80610078674693741,-0.094568809283521779,0.36802272474021536,0.40842477921128245,-0.66511272249165521,-0.63875222263734444,-0.85811651441951409,-1.4449530617806758,0.84273385172151971,0.17232178111866725,-0.12054899693148058,0.44468383013614488,-1.880958125772709,0.084006986021513103,-1.2844434789547525,-1.2388904345070768,-0.49191149882031182,0.5204520759792195,-0.78358380425653107,-0.33911622410242387,-0.98697581613776919,0.48068944957581583,-0.80958530104082094,-0.30660059773912146,-1.4430773058082198,0.64507948296427897,-0.046811423941577841,-0.7717879950710419,0.2186021550654991,-1.6031386437929271,0.17487884639305284,2.6701025881434717,-2.2151753191958004,0.82406298103143383,-1.7687856346921143,0.90919840589710077,-0.29964211804686564,3.3069715157514326,0.61335051766533755,-0.05676018552197596,-0.50349437046500345,0.47594637340603485,0.028154036737845872,0.87821216393763246,-0.56938748585851606,0.91250563138569996,0.45436149354965916,-0.81007991421981373,1.3729418685763202,-0.94502469025260327,0.31138161735918424,1.18632921389517,1.19854646245388,-0.30686807862841514,1.0642931702603076,1.8768952002990611,-1.0316251135695194,-0.68067641332524498,0.61617100715061379,-0.39614839184159045,-2.5385449496442125,1.1653970561158666,0.04161048023450719,1.5772379366030125,-2.0630990365998829,1.0469327530762966,-1.245271843251335,0.24702542082500006,-0.51748130881106458,-1.5666654958961117,-0.7494398720958968,0.27884955980977499,0.22154631653438672,0.90059234267747135,1.0685474253525602,-0.20389591293036596,0.29474219020757975,0.065877662070802603,-0.30735157080453623,0.0026030370090472372,-0.33680353265525576,0.034045260794510937,1.1337907030482914,-0.14790165629582566,-0.91442271152121379,-0.70433467821303908,0.013687188776814045,0.65541667824502337,0.47163733812986869,-0.81227103745989537,-1.2494049279178923,1.1808230468014036,0.96945710210251357,-0.13290159462526782,0.39098483149072188,-1.1714214739748359,-0.56510084200384825,0.021698610037168508,1.9901904373108725,-1.8465592261361481,-0.075520675799407411,-0.17225748770967667,0.9593986013943735,-0.70566336032097265,-0.0029998105355178101,-0.31139028206979003,-2.241070877629685,-0.10042765829912702,-0.67755508364007722,0.11204941169378453,0.72737263263726792,1.3754474144970366,-3.1217773134105675,0.38182027373560717,0.99444447093735644,-0.37485415830862079,-0.28950033435971723,0.93760628124067258,1.0253713686707489,0.97374823017539303,-2.3497924125745073,-1.4742127206514193,-0.057978091877663902,-0.44289350515821763,-1.0915865476281352,0.54659849990818843,0.75933871370091754,0.54950443595793752,0.66507823099661578,1.2684691316160608,1.5745659851635996,-1.5752066150766679,-0.036677270839958358,-0.053783564369753262,-2.3418161158714308,0.76432160352126499,0.37293728564340578,0.56757011364326759,-0.015338633524318343,-0.52894601884483738,0.64862950451241919,1.8022074467150606,-0.9050322601187456,0.062496800480428202,0.58525219600162959,1.2893801165295555,0.11880595491304968,1.3270798340945507,-0.24297453573537359,-0.56790919769044512,0.07427032920883439,-3.2081634360613869,-0.10853130441402434,-1.2130014330447532,1.1811334041653425,0.70930525025763047,-0.23152048560041158,-0.23106762857442886,0.028308034361761603,0.51219222431676215,0.026327761127987511,0.99074116836629189,-1.1546797245682441,0.095754291738761668,-0.83339685598023372,-1.5375238979225936,1.8032155327716826,0.0065484256687866607,1.0016937124298706,-0.052689672437316981,-0.36819199847283524,-1.7934019353087991,0.26235896541591996,-0.17549695156359468,0.39480415264656843,0.41940778676913865,0.050296764109396888,-0.6897754759214193,0.49874178466901298,2.0739183577331568,-0.72185280785033124,0.3187414429976822,0.14392459556477849,0.36801642536115747,1.4640982564718277,-1.2896991070549331,1.3681401214891127,-2.1676513553978927,-0.76374120397751188,1.3075268587689766,-1.1770385933361109,2.9068001782209603,1.2559999802536015,-0.60840308827016565,-2.3158520136750709,-1.9970408994825386,1.2814259373930115,1.5292230056493163,0.82447610013658745,1.4895479778952767,-1.5175867318885821,0.027837761303500429,0.20582039931719376,0.62264680333033628,-1.2516924463229999,-0.52317989878055848,0.82269146335765964,-0.30213215701701207,0.128232017720883,-2.2584638221726161,0.11922779697792432,2.9203610681107248,0.14987567193149004,-0.015972348126713679,1.6607437710702453,1.1280189989719742,-0.41106853789130543,0.73818968473463298,0.31870437578435656,-0.35731733927573456,-1.0770203847676023,0.95297075706341206,1.4795866883553941,-0.098143859130244385,-1.1119656276204042,-0.55707947675636127,0.22847963601052845,-0.73621348040444301,0.18451070219325957,-0.3154924202347178,-0.14987465598720079,-0.57290677703915249,-0.078512802708385246,-1.3520998659461159,-0.67099582430989424,1.1073973787485647,-0.72837306430823234,-1.0234486187069636,1.7350313930487649,-0.51802743525247408,-1.191054839139928,-0.078748204062060637,0.32340248214759854,-0.88140710969775216,-2.155638919135602,0.51883593203492806,0.53425687022542878,-1.0958661469631734,1.3245668738136247,-0.47421500170503367,-0.13886118119662494,0.95135262711851021,-0.99955506623278412,-0.10108367762441715,1.3751294166095283,-0.12923927444833153,0.31304225555776305,0.2346626469694707,1.043415836598979,-0.11966056669426994,-0.085859384927459953,0.99359445359233656,2.0622100366046063,-1.1254794711457494,2.1039277408431003,0.8560859686086717,-0.44785888506609672,1.6859575335167618,-1.191393006306424,-0.48299460082138368,-0.22293591755379114,0.1512608778601971,0.71955235166663878,0.33479368050924524,1.4788647247145636,0.22766523394186397,-2.20484076182013,0.18202029543372117,-0.43464537145445153,0.33574854524538172,-1.6333517781540223,-1.6149111100652471,-1.8810306061673778,-0.74144371706172529,-0.72076588112638396,0.25397036356448893,-0.84488581975229482,-0.52077112385556545,0.3225491048707117,-0.13026641315800797,-0.5783498205598161,-1.6596910716527635,-0.66335997101772348,-0.89000033836239545,0.079694287617190204,-1.3945163537297505,-0.69684425958525686,-0.9331376106541226,-1.4684300154075267,-0.16581937095014052,-0.90052605788871853,0.57326100806043589,-0.11438004068547324,-0.56064666902640936,-0.10917573665470323,0.44894203301141788,2.223546587769607,-0.30752344735875692,0.46317811253182106,-0.50664988500386587,2.2418782498849792,-0.42971446266588587,0.61607918774188308,0.88792379207902361,1.4255984794638257,-2.139203133374286,0.48956507014512735,-1.5577015869789779,-0.91509775202417909,-0.74614867107497085,-0.19937306237958358,-0.074209988798955739,-0.84702781660306325,0.72659853696735577,-0.76129167436718415,-1.0480277335774262,-0.098219647522807721,1.4042936212421657,0.099814849105633791,-0.18345898075380707,-2.1333366903098363,-1.3814922388659969,-0.22544559348725102,-1.0637290304672715,-1.3040189128515305,-0.085561691291603903,1.9410103062527992,-1.323863438921324,-0.078197610714361016,0.31928527282765601,1.2286066836529983,-0.62063647356431606,0.093169102275703117,1.5378786168507954,1.4073834993421908,-0.67713649832357792,-0.61287907357446647,-1.8592028406501224,0.4177899828046206,-0.64340608490190265,0.037291158269731853,-0.79733324983141318,0.034757226111899207,1.1620896122598241,0.96026022183825077,0.96894847611097601,1.0719013579593253,-0.34325707220416568,1.5009605860075756,0.52090881398669941,0.3111344947040281,-0.77651011761502875,-0.86716118469543302,-0.32030526184863994,0.13794902388339694,0.19123957348513354,-0.26651168578417989,0.88121486241555635,1.0462046364898701,-1.4147413464013192,1.7551437166781372,-0.80654267944565605,-0.46987603060726679,0.72639831286201628,0.11121627749231978,-0.91715892735354787,-0.5032349346264956,1.0528329384259121,0.96536814518141456,1.0471225783026459,1.9106056655666395,-0.46473435391305939,0.278221993440052,-1.7152639630497304,0.17241922083048386,-0.87217905214038527,1.3814037352097197,0.65333596507175884,-0.18270034353339523,-0.53911428707628972,-0.42929217362230343,-2.5132111739141312,-1.3243051974488735,-1.460141392474593,-0.068341734119792594,-2.1915256700655501,0.14906816716715407,0.030902343894839621,0.96394462656671398,-2.0659710712020671,-0.71106618259234455,0.29916667883928971,0.15453542147148122,-0.51654229942841601,0.45065240937888396,-1.7953872032047091,1.4297250526193899,-0.11276908739606915,-0.71240631569216306,-1.6138622444514645,-1.5660233169863849,1.8259556460517081,-0.71008688718817314,0.80115238387006216,0.43100803942448718,1.7897198354614432,0.6228774291725927,0.2470401453805319,-0.39728107115624334,1.0587736894748592,-2.5618547072684938,-0.58682225436897606,-0.51194931777412445,0.6697207016123724,0.52187922236610418,-0.081719462900988402,-0.35365888858306388,1.3747935413690677,0.27583319822950247,0.22157025639806044,0.64796335831910257,-1.7299338160114999,1.7142378686763808,-0.97025353990517027,0.48020398647843715,1.8020065084437831,-1.5403341582207284,-0.43955047362482269,0.17487814184681513,0.96795304853769859,-0.73044260073369138,-0.061080534791967664,-0.41171938781847756,0.59488438338668626,0.9621907393107112,0.88190302145288701,-0.093349314977137027,-0.61468629984959644,0.11861133034432401,0.68544852856592142,0.20912850527283025,2.1330453240920066,1.0876632879833179,-2.2612620294407675,0.40012756246949521,1.4646943180197678,-1.4173588131097128,1.063112351217409,1.3008007112731907,-0.3758052789562541,0.60626722487683704,0.33321428595703689,-0.7306920502370049,-1.2724383158190808,-2.1030324183281013,0.54821734924130927,-0.017875652564537072,0.67567960983743169,-0.20768969894814426,-0.85215447186179016,-0.010040768695192836,-0.94904250838529236,-0.23416135674052582,-0.50396329423218611,-1.9743232441838727,1.7874976340776829,0.25841813703566258,0.34106528194478425,0.14387689272348317,-0.54485583348758981,-0.32511367773753691,0.47454243923239381,0.64503391058098958,1.2365539680532038,-0.82133590561587499,0.10468792094618502,-2.6067389694897725,-0.86462432395962774,0.62098162535147361,-1.0101054609875826,-1.1563542134515266,1.2365561011004327,-1.1579221274060294,-0.70194946699136962,-0.56395392346128415,-0.055373252267746795,-0.58018786692885116,-0.98992345891162492,1.4415662970878023,0.70587779194776268,-1.1608988311788355,1.0465574336623253,-0.92865482312955883,1.2487917593097648,1.2894943172761089,-0.28734785811285712,0.950726339694975,-1.3678608100642404,1.1562182614534584,-0.70895661029336177,-1.0889532716192207,-0.38095484671718172,1.0888247710669354,-0.40003865059777155,-1.7140007481783524,0.13245535558250993,-1.0576942924357713,-0.74537536258749981,-1.317273817430167,0.84624349114186548,-0.15521180135368237,-2.1361588238206162,-1.3100111831482357,-0.28628314244443592,1.3272181050768419,0.46707373045631784,-0.49494339256305803,0.57412697973451077,0.69574081779464381,-1.2517406051245052,-0.94995324430786254,-0.92520686105753946,0.41471693839545803,-0.44028621270106061,0.66467167503666791,-0.62271420614604267,-0.94840122062815846,-0.58963709325627744,1.0900751536994924,-3.002202813531194,0.18191068608676117,1.098070460719367,-2.2149632180273588,-0.037949879567257178,1.1170916995231583,1.4209173315173238,-0.28456783943592096,-0.17266461326347929,-0.73586185090484535,0.17225593046293042,0.39534361239148641,-2.4881542985184026,0.37113513892314143,1.1153871224529899,-0.32241920431745857,0.077929032008210913,0.014227979854108378,0.48337206097412067,0.417463634180888,0.7484579484885866,0.38327820578800259,-0.19848911092243532,0.39848879376985985,-0.068244751949715771,-0.03652096294868596,-2.7975272303696741,-0.22781181370208134,-0.35797072825037302,0.38624061036543694,1.1916644006320489,-0.19765762019194982,-0.68980724458206633,1.6718514030270053,-0.22056708139097359,-0.56435292009414928,0.34405662780635393,1.0599742674676849,0.35250109687599573,0.83255960420288533,-0.15640415081636583,1.0113764471276194,-1.422769119921435,0.11259884592765557,-0.10217721216970629,0.38984598487195321,-0.73773911020232608,0.79872470591268674,-1.0201735059821695,0.74809759978477675,-0.84561220797165837,1.3857441550582521,-0.95527400715573363,0.70596044959094439,-0.45322788542947301,-0.4211945930881551,-1.5904356084318507,1.4818177998729087,-0.75001820329468105,0.34412268019931413,-0.68727414274137144,0.22765883926255556,-0.81082769773973973,0.69501001054994682,0.19960470504308953,0.28298282098956218,-0.046391918276614999,1.255668192863493,-1.1096428861584402,-0.40046030480653561,-1.057491763054262,-1.5478975625913789,-0.78586920124960502,-1.2657249314526711,1.3175555934491152,-1.7039309664931488,-0.41195079007538377,0.24744273041131684,-1.3287942535990416,-0.56346853488463111,0.19028386191324764,-0.81100598339163399,-0.58985711955383124,0.81598646406534403,-1.9601004223395959,-1.5951515641235159,0.10816345263936006,-0.088374476489662346,-0.16011830815129383,-0.51592805742443437,-1.2633290296811728,0.18434001312129794,-1.4910035884352495,1.6716086624038089,0.01305657435203829,-1.2802668620513404,1.6169558211572557,0.35591118375913899,1.0382820919672995,0.29015447732333816,0.2289349536263601,0.3988627764678635,-2.2463982034354051,-1.7341004688787283,-0.85145160061290404,0.82673600216129317,-0.26690972675244867,1.8335451589243459,0.86422730254054603,0.15530191584126279,-1.1370135397867631,0.74608256222185887,-0.62299967057846617,0.6922595084612434,0.37822612616594264,1.512955921630085,1.9220229329954621,-1.7121544065156085,0.047194012196445159,0.45525906550936557,-0.74218948894778003,0.10700200087418689,0.06559877860993843,1.3136340083416389,0.2373962467505995,1.4422106874462473,-0.55314288901343001,-0.69740521840856706,0.020055103155922214,-1.4944019768911068,-0.21690754699143633,0.075483015159369823,0.51401993784444067,-0.65661974392505551,1.2835133453315386,-0.24211747206057505,0.60316859325519245,-1.6266065365719828,1.2709008541168967,-0.48168152339777187,-0.77718226481609065,-0.28319805496451683,-0.054978554115486876,-0.12375905253880064,1.0452566762374986,-1.2968766405084693,-1.2013512413261502,-0.32248392761973005,-0.781598456007077,-0.24870748429688561,0.13239573508143171,1.0514431694794455,2.8476680272315744,2.101014072187001,-0.77601252378555963,0.80038473589591652,1.1876116103803951,-0.41084737882411609,0.061955850265697214,-0.54851623280498529,-0.8307697628857782,2.3656203540614555,1.5823256383911743,-0.37311748170357922,-0.93439683352334435,0.36731185377282433,0.12873429093940703,0.03082320437683991,0.16419605308410642,0.26997789609653711,0.3826999008486951,-1.6980492362875195,0.41016329257295364,-0.26748867450597191,0.66405617316684917,1.5238970793350719,1.310273034150707,3.4008550116544187,1.5348195123258674,0.29867754852103384,1.6332846539110506,-0.62015122829375646,-0.38405041405730994,0.35808396700002948,0.10339168692797099,-1.6246927810593956,-0.17142170691837558,0.51319473357241652,-0.93239757901243159,0.22095194134824667,-0.16370628202401161,0.16558700737516077,1.2500072974262011,1.1011608515488605,0.032788857431740738,-0.32460475188090493,-1.1729601353552999,1.2626874679524762,-0.67616530095169258,1.6943850897726132,0.66075858809964294,-0.92857033658872257,-1.3414780764732563,-0.29056697732547276,-0.49782086817723264,-0.16115764760667511,-1.3898605108125421,1.0067740905311706,0.48835392586142606,-0.40730658442727502,-0.18959062636605539,0.079085462988898111,-1.8005528399410771,1.6636619796195058,-0.67971595140382746,0.79038795111450011,0.75231391947222603,0.76722798966954275,0.24980543744372974,-0.57072828873563186,0.84301534027826097,0.9965125541140909,0.91426655151278013,-0.56418183494120044,-0.87365715755737094,-0.7038995243272812,0.58399370570583908,-0.75782479016201898,-0.13643563015583049,0.73903149889969122,-0.75336189629067485,2.4975502222595534,-1.2898353037637835,1.3331909152603179,0.29879984509804824,0.69273087106408171,0.16347072969814086,1.6015490092873272,0.10343014429111562,1.0373653421427886,0.82154734787003458,-0.030493999540759213,-0.36208102440435391,0.26114416806264984,0.15525963089598915,2.4099389329064871,1.9632996684015578,-0.83682653673652707,-1.1040010876949953,-1.587552796855781,-1.0187164359071921,-1.1519105406610164,-0.74251978284144216,1.102474948935636,-1.0337645404354789,0.13133053685897908,0.4847758704245938,0.16088170276015978,-1.2854037154272053,2.8275895736367311,0.24254209885035988,-0.14156483920605062,1.0896386035425745,-0.6486009491338397,-0.05930500691277376,0.43204613428448546,0.43319920562891268,-1.141951165607562,-0.28145483356269951,0.32313604292548481,-1.0497190448085854,0.64152821534910043,1.6063395350761831,1.6184590632172857,1.0343431956803062,0.087137455596043079,-0.79955504579218184,0.50637636281472453,0.39505503002022613,-1.0442114700075402,1.547834519335995,-2.0084289757015275,-0.72480654558850588,-1.3155373752134736,-1.6214253076813503,-0.25097537188992652,1.4480432627049271,-1.3990495031299552,3.2227255482693455,-0.86337733662692639,-0.99300347227390884,0.39503187010813073,-0.53183626630429115,0.16079890115050627,0.19795737434836017,1.4037048648328012,1.1722712048286275,-0.97264664964335712,-0.90602169076241612,1.0652541607129824,-1.6586545037097202,-1.9948724592491451,0.16184137677343757,0.17540815880299354,-0.86629539840108549,-0.3568790859227699,-1.0443883660171329,0.18207704018984439,-1.0184555090485208,1.0571692744964398,-0.27001544100356167,0.44608398751026351,1.5199417996497142,0.19618802002851926,-2.5262823983493408,-0.041047701540346385,0.30256619913371063,-2.3360166500638604,1.3862448775065441,-0.13632419957914299,-0.10198570614840939,1.4800751924800934,1.8116422063808031,0.31913192554976105,-0.32508821812500105,-1.0464673577295678,0.078740121158571513,0.76490014161726128,0.089366566456043295,-0.3127428420190046,0.048182301962545998,1.6201104889711755,-0.12956216518459804,-1.0980290523349203,-0.94505768937830636,-0.64901765198122163,0.42249654217010579,0.4336439014362477,-1.8770691601152496,1.3652239680349385,-0.51840873961757639,-0.47218100523469364,-0.3005154560458253,1.6382479572831565,0.43848438949922153,0.080227257442574307,-0.32664126683960548,-0.33824015783234002,0.85988932757865488,1.4709508930980126,1.451210148006663,-0.067381020162247451,-1.6443989955922973,1.2936245947801752,-0.95307007308517711,0.70486463361203977,1.9197603351687693,1.1714685214510798,0.66900290926416861,0.21007135477640268,2.38690539180759,0.74173472455419331,0.87890558877809821,1.6514493115272224,0.01760408216947763,1.579356299760881,0.45004968081256158,-0.35421331659174649,-0.39602360471299514,0.80687063569949158,-0.13867498198965467,-0.6775033573867616,-0.1990304396711457,0.17509055889593217,-0.12631513437169617,0.41803578343276598,-0.58119459944108165,1.4961790875677439,0.24484261284626446,-0.24829812272921381,0.37893241162809665,-0.88461975164487183,0.93572985990732183,0.31104193977350331,-1.6092346682935412,-0.7343900379453544,-1.0332192891994116,-1.0203848328703646,-0.10658385922356522,-0.33239002406852763,1.3821838018545238,0.14392406207300118,0.54364999711485962,0.99612001850851983,0.39806874995915059,-0.21800907258311861,0.13596446500962978,-1.271218705206697,-0.98603645110261506,-1.4318289113870406,-1.0281340650118864,-0.32694820962952698,-1.5285496381167625,0.37678370581096832,1.1761403149445666,1.2695321986680701,-0.6223698638280265,2.8256415832361292,0.16943302308301228,0.15047637607249828,-0.91671271608703242,-0.072370972224323177,0.13685978757689501,-0.28960917763857025,-0.29909644321025403,0.78555463725090691,0.018226841762233513,-0.12713133589254136,1.4410479560272915,0.0043679100913653866,0.58144446197190269,-0.94042820266388338,-1.5335996165203281,1.5610209696295192,0.4993970566547356,-0.89347649471774082,-0.18943325772595473,-1.4341307464978093,0.99193710117469791,-0.65587031184106148,0.63928555425772671,-0.0038212965875353173,0.3092750642571287,-0.1035824362744792,0.30459474408780413,0.79276081040653934,-1.2408161444314887,0.18115176248621576,-0.13468603066192578,-0.683964317087702,-0.35135698938002824,-1.0096231112494691,0.80152007127974423,-0.08951117432318477,-0.037281639480079884,0.92400959514452263,0.41614467384669895,-1.0494050935983039,-0.61475678146643742,1.0290854377536887,-1.6592172857801397,0.83049517132586859,3.1383168183503991,0.22651414359599489,1.3293578975147662,-0.92853199995525015,-1.3226139856518428,0.44977702833955779,-2.0968463932734691,-0.97083933938532629,-0.94084317627159608,-0.45315900890508259,0.16520932835045882,1.7319400303887749,-1.2775216631713155,1.2319772298997764,-0.0017149689556081786,0.53356985743994823,-0.20844485763997692,0.32749360593916632,-0.45147670538763018,-0.32712910954240526,0.7844701941352078,1.2143852249026554,0.24023048526355698,0.05613684437910562,-2.259408979380189,1.7180506263431579,1.0803869022723638,-0.20655796371781976,1.5729017704151402,-1.230195342514655,0.44502805732311806,-0.12761409927694206,-1.1946051992240549,-0.20664762284042476,-0.55319306405325142,0.84889073447698771,1.0109032515129404,1.8851022540597941,-0.038371861290857082,-0.47369125830038483,-0.47314156643308652,-1.4980463058697238,-0.98272967864165861,0.9090558901994843,1.8625134821479079,-0.664677746254007,1.0760856050136292,0.54098839282781042,0.96331915064312656,-1.2072585200501471,0.30985518156696285,0.14429843930127226,-0.039844015478349856,-0.16069533435534505,0.033020876053287115,-0.94908965674519818,-1.0961272350935929,-1.0430239108410706,-0.58978925290753914,-0.30731682778956976,-0.02143318259630593,0.51502338418617521,-1.5339280554013575,0.0058920790119789653,0.084945037809257246,-0.41467378770737745,-0.50063654097948573,-0.57106182454311172,-0.82491543922594912,0.19117015032155915,0.07314980976080758,-0.32456602956713115,0.76857519053515733,0.6321648121955924,-1.1070370396359794,1.1974564995781389,2.2509888242018037,0.4718611043802558,0.30336259710931712,-0.97520091702017708,-0.41482549986141565,-2.659802367998128,-2.0822956926496881,0.46725746990553119,-0.31527023898842421,1.3673223477517891,-0.79760690019029579,1.020062174852874,-0.35660400262007119,0.7600842163397119,-0.96924521841953304,0.31309969055585596,-0.35454305339810854,0.84482308136304463,-1.0478693420478011,0.66891933829571337,-0.49597700240167519,-0.36189184073826292,-0.10095914454596132,-1.8637037562876044,-1.0324352704798705,-1.2880655841985189,0.47855774511141813,-0.34624339288810446,-0.51267367621340487,-1.5306055985160523,-0.23364882223598388,0.53962755250146455,0.72279035678822079,-0.84376207023593564,0.1696178904087812,-0.30272285843611707,-1.5341208104656749,0.84804709391866384,-0.26293666857908182,0.23949949540001542,1.0868126785268126,-1.0440801952943781,-0.068054947004604571,0.94098443708492008,-1.3701404462925666,-0.51792637129427899,-0.52618308670372771,-0.35871428250256804,-0.28050841177572033,0.084313578547445409,-0.083463687386195293,1.4809984637305942,2.0957643426575157,1.4062235930311691,-1.2074145932528666,1.1442953842833969,0.16873310327123969,1.2263316154079118,-0.061282199633280438,-0.44594138912997766,0.25244036499531269,-0.48384352624269567,-1.3383269696122873,0.033129259740863927,-1.3843630849926871,0.66408707755417806,-1.0975297545016269,-0.76973154149072409,-0.19858458921843961,-0.27541750651365376,1.519494848171673,0.55059341453991162,0.37562473681286013,-0.54197943078010713,0.58552586312043908,-0.061254443261702068,-1.9306029684122308,-1.4430871021709883,0.061553710207934112,0.43770774884578179,-0.83989738344372211,0.10959306728487969,-0.38542949138001026,0.91060740069236557,0.57185065316378481,1.0898366957468437,-1.2139752156339918,-0.04508439716766853,2.4876698647071862,1.3917252093207237,0.52215874235495607,-1.8115633516522518,-0.34528593101054472,-0.20835396804878148,3.2219265040101748,-0.65714084419115171,0.8382339605972865,-1.2385667684331778,0.63905068935712017,-0.06038226970976298,-0.11103488420901186,-1.0620286159971064,-0.17323132892754703,-1.100452335085262,-0.51191159234265127,-0.13670113158061581,0.11882213428799725,-0.58432225412698025,-1.3880973261386695,-0.69413001227722215,1.183625792562069,-1.3901811728253293,1.3633168424814732,-0.46491519419023297,-0.5551732748382695,-2.1616023651628629,0.88729768115420671,1.2118755627217888,-0.50690792219656644,1.5445810644694087,-1.666716686069627,-1.0643342719075299,-0.27699497221627539,-0.64650894414453786,0.024413594071540885,-1.0192783491884689,-0.10834602645653839,-1.2792810130349457,-0.45331707150464834,-1.4272834051075691,0.71146180139748194,1.2363593014848993,0.27887872940113723,-0.74351229145105846,-0.5905541106209734,-0.86085785584218677,0.88085613917794259,0.38273915287835775,0.82413953951378516,-0.40019911055635515,-0.50288075504118712,0.34304281067214992,-0.36417836010893379,-0.10959788613336731,0.46437675773334253,-0.047501139324497593,2.0874745774312835,-1.4536340408666113,1.0017259254837656,1.9072980934063297,1.4507826446690715,-0.18878003348508507,0.81705992575322917,-0.097212351004421785,0.58985303042743964,-0.13172052487932309,0.0093124458151111617,-0.16522284787652039,-0.23940998083430828,1.1828227987456159,0.31379939694380982,-1.2255159189373837,0.78871136899973138,-0.053588590749857765,0.77807415186947715,1.2045622157824909,-1.9066198328246049,-0.37333919757827333,0.61164570477251368,0.17826353817426441,-0.095483716696057416,-1.4549371430928439,0.60195651033224795,1.5301837722564144,1.7284428585893514,-0.48701683488971842,-0.34900083450129599,-0.64410206807341119,0.85262153186123379,0.32692732930236512,1.0667402277979527,1.3111843636651062,-4.0663404859639458,-0.72430277907563612,0.55382337864083286,-1.9396381171414401,-2.7801881369097532,-0.10717774091405598,0.80250706987001463,0.071826013134994343,0.59290299414241865,-1.5222792874684137,-0.51113067257716371,0.82224227696367569,0.37848417673906293,-1.0552624765203373,-0.83202512333579148,0.1513810566371607,0.069239512496548569,0.58330224375837625,-0.62982385433231225,0.4748539357336054,0.8539214054179568,1.222620640614686,0.46136725584926624,-1.7418420101497785,1.4721238217247814,0.34782070143938809,-0.57907406495543723,-0.64969857117908536,1.9116118888341274,0.056532352316763165,-0.29021466369524357,-0.76082197411146435,0.0078427087610060901,-1.0908738484631924,1.4585509110664161,0.52452100547866143,1.5018426057190666,0.88680434434530686,1.6459338154683103,-0.89560031936385298,-1.839964491618054,0.84242162241832774,1.8352846340533797,0.78968457356390254,-1.0865769669904113,-0.016738444047717221,0.91834435844143214,-0.76355426174426921,1.218568678270437,-0.12875740829367993,-0.18629571347210019,0.51341056647086625,-0.34383474774417133,-2.2295103008512887,0.45653429181011457,0.34834377670924455,0.7703175885453063,1.363108904779055,-0.92613784551063416,-0.55780493604763148,0.42803137758535248,-0.012338893448127247,0.78640370375661084,0.21645706871268722,-0.38064999926417431,-0.011559703646693446,0.59152821428367697,0.90254042491981878,-0.53561173614882929,-0.69014286485593535,-1.6334545098837117,0.60868764308487666,0.073975917045430856,-1.0811175291748125,0.36067466901216244,0.030665711628195549,0.12628055901164323,0.89138453414856733,0.30456448059563496,-1.6312282094928476,0.16481068307409774,0.46331732215118965,0.12007934288493917,0.21884653931853748,-1.6463571965489476,-1.16856192813297,1.0191158160209941,2.1196788702436415,-1.5839633196698804,-0.93242201321425577,-0.76518609316194575,-1.2098629886987691,0.12333919998024541,-0.70781981192119525,0.85681248651509057,-0.25371475707604657,0.18121366139698666,-0.88855402317808541,-2.0647595029483612,-0.40677546036863049,1.7575357955543187,0.96108073741540845,0.47994922272646645,0.15603094536492967,1.7272084929700853,-1.3540373076934327,0.8523850259043585,-0.16100772681657649,-0.41061694614082483,0.88164571927073931,-0.032505123572081678,2.0765074312830998,-2.0512272728368912,0.75433331699302897,-0.57185684172362583,-0.21706030256535741,1.0552941540880947,-0.55926811158595324,0.3489850328340775,-1.5608531581804628,0.24180843832771459,-1.0040999939344217,1.8788609064382324,0.50266857315818125,-0.34796786842088345,1.7080760276107558,0.93162415702272594,-0.42116881703944981,-0.089585574859718839,-0.66282855521768613,0.49723824831468716,0.89052582061920871,0.06450922891427241,1.1968156194319264,-0.42440453289895119,1.1555743030998611,-1.0596038864516704,0.49583447614482845,-1.9765644387104875,-1.5185407064287555,0.049544416027879123,-0.30664826325587458,0.42723475736367433,-0.71222839321265041,0.1393973170151806,0.44276681554914771,0.28993452333140379,0.89620291286579867,-0.68165542425678793,-0.86506320884653876,1.60934297926559,-1.2371764016110049,1.2512720838752001,1.2649751257455346,-1.9335801563571244,-2.6498416667748481,1.0525604461449691,0.79804170591478951,-0.66229524335153211,-1.0534608725512764,0.22644641539468741,-0.87600180358622426,-1.4387431475757004,-0.0298385831370012,0.077413399145331199,-0.90207156218744478,-0.42950971551952449,0.28076744200208059,1.6591988973936236,-0.39111953042109554,1.4693157817692213,0.85391020396932116,0.42607331578397778,0.3520500204313286,1.6437875008926626,1.3956660218848289,-1.5211969722007654,2.6861323550615892,-0.44694535091661697,1.0409261551714142,0.18356883743942828,-0.99419642379474216,1.2374146018385701,-0.46945717679795945,0.2138906214557238,-1.2818441108827257,0.21690859322349787,0.85652840697576271,0.042543087572544991,-0.64149400258589917,-0.3947491274482039,-0.20433164515815058,-0.31421143248192107,-0.013818200791216984,0.61697223463761197,1.2925816960798797,0.65189457728167843,-1.9963363928840256,0.33221071256001716,0.098483514154017238,-1.8172298515186214,1.1271609135336607,-0.4342310211791291,-0.16020806722226821,0.13227867136431165,-0.77728925436027185,-1.2308972099062054,-0.8659588325373031,0.030392403928621452,-0.85062979650750281,0.52684737489552858,-1.032891299782648,-0.45900684764375771,0.4340078857814369,1.6616816288998555,-0.47111216252763144,-0.069796258182822937,-1.4539126047713553,0.81745603494299557,0.036832890766231967,-0.08234920291082741,0.33026077365905415,-1.7655051685786205,0.84970182181701492,-0.85739401467552279,-0.33125061294029956,0.26498166705189025,0.76789146871488334,-0.13135972166758123,-1.5477451911160967,1.0206842396250431,0.20462301059127069,0.88947862686959045,1.3730209089987042,1.5330048548840485,-0.15553605764882319,0.75371685816795897,0.050613759403427973,-0.15034130467468096,0.4474936174645992,0.46741622019269774,-0.95518904658154702,-0.41473275597555243,-0.4427495692321643,0.9385961060422735,-1.776014617937808,-1.3695467718455638,0.15592470972423986,0.27424041717968917,1.3887570403664824,0.4251883165399436,0.063968716215595633,0.11771547787380528,0.79262789782538978,0.64936482432424125,0.44255840988201745,-0.66521304123498248,0.21872458079115004,0.46252569679235767,0.50024677632190562,0.090075959160296273,-1.0248669466022717,-0.81910110337083064,-0.57021868252546926,1.6744812963210316,-1.3170214039774475,-1.0352934484334997,0.8934678782097204,-0.53420168454601058,-0.1025802492752786,-1.1738533236143898,-0.87385050466913339,-0.72722131551796942,0.30399111466654527,-0.17584740564173543,-2.8277445088343116,-0.48289453040985342,-2.1341294172753331,0.76260691864381314,-0.2790253410439244,1.173306108757636,-0.58672190902313814,-0.43609218055151283,1.5547076927061563,-0.0514840603158511,-0.81087883781511449,-2.1223204332713306,1.2018575706121757,-0.44952945200905664,-1.1995152703099095,0.80828338587569382,-0.73523952403062165,0.38166358110971138,-0.17385128310531403,0.23753862845806514,-0.045048555881359753,2.839504612412302,-1.6105047598437159,1.5434530169721976,1.1660507929521478,2.1262589239496497,-0.77768183079813513,0.2194686821692432,0.30155240927723737,0.30335663550134351,-0.63028499157324713,-1.0461410121509633,0.092433722736068688,-0.8344485604916384,0.27411817873333971,0.74020261878732441,-0.21051860621551777,1.735565917604839,1.2429145218988629,0.54926996384336746,0.59960531857093147,-1.840802113837497,0.84908484790005812,-1.2119030811093159,-0.59676608679478071,0.55055505651394998,-0.42836572474194407,-1.5467121588448103,-0.19995043608324822,0.29943335816794364,1.1392611589457768,0.75049335253210725,1.3377118484223416,1.8631245597309825,-0.0078277106944877693,0.35776953737342942,-0.08187321101774872,-0.87554886261109688,1.1855026936651916,-0.1995946802523503,1.4266481185249635,0.75234045223264301,0.20433511174487035,-1.1640152489958893,-1.243206783392877,-0.44762497362067272,0.52159981070115169,-0.88775742220923204,0.33231332589961171,-1.0968690799780652,0.56744353975872419,-1.1196689294066084,-0.65732931098808212,1.1328280573119849,0.08625937787337358,0.23231998858917099,0.45397012758631766,-2.8937983662708513,1.4328072541968886,-0.15696496888991152,-0.52291596962912767,0.94570597629323505,-1.1159163758815285,-0.5528901571832473,0.33369981937053644,-0.85272741749200875,-0.36049245923906803,1.4271050413608031,0.72779160321253045,-0.58196256200439722,0.82371895985770549,-0.030111785721949683,0.77120961262388932,-1.8115115535378099,-0.48044827229975678,-0.050691952810000634,0.23117316122870071,-0.90555997873926386,-0.3332566042532637,0.14134029775277804,0.5403588840794199,1.5963359594336266,-2.226088963218666,-0.46410056490717916,-0.67758982348622199,-0.30001333787688444,-0.9462665295675865,-0.11541789142433434,-0.65279974796617624,-2.2355871046058113,0.94437539573539997,0.56021092006709827,0.66147578389367589,-0.35928066647063106,-1.0286549521218342,-1.5818702804366798,-1.3948908107487923,-0.58308343794844852,0.34172927733425512,2.4220715282078329,-1.0968401645162169,-0.76740891356725027,-2.0021199508191843,-1.4970643764897846,-1.440075672376534,-0.26073094800961583,0.97345096447976931,-0.83565263485640429,-0.52531302111999234,-1.5871888006702843,-1.8351109702592399,1.3944581853544418,0.70294642529284701,0.67673698656627868,0.89679328265505565,-1.0791584673824464,0.19787738051979478,0.6756701124220531,0.23243605114781327,1.5920030271134649,1.5689037934544501,0.19650112162366229,-0.43077154281593577,0.25370048441066845,1.1689212440715668,-0.622150476567774,0.42478416510882383,-1.0866949706814923,0.91295526288726569,-0.8295379539815817,0.71542451508993099,0.44566104731073936,-0.21411354338985583,-0.46686415477482579,0.59669056872988568,-0.86915944838925041,0.24814709638628521,2.7968492594718315,-0.18734867636197275,0.35943051230106482,0.38170994902094479,-0.78946234455570719,0.90907403952929444,-0.048486407837771875,-0.35695065409992832,0.82352055900483667,0.21241108891889882,1.6887745328267731,-0.39911079025585938,0.74913303948562859,1.2207142477012221,-0.33662276709775996,-1.2658381767552944,1.6931684966443057,0.99842331258303585,-0.84633223361189225,1.4641806371401358,-0.58066750644196707,1.8429814896833847,-0.058304804681213337,2.5011103363250018,-1.4489975665545645,-0.35835312924895318,-0.6458049607645765,-1.6984496915548071,-0.5298171574621795,-0.10073593084454367,1.3508503107355292,-2.4541011501929315,0.68683012944223054,-0.96768056409027003,-0.88108466852027612,-1.2713264074024824,0.77512472643076435,2.076382823605579,-0.015770313872342203,0.13225685876846222,-0.87079979409474118,1.0075204398008561,-0.71777062103527711,1.6767655661933012,-0.27893841319269447,-0.37011577758312281,0.078762708684375196,-1.4998845770073905,0.1302286992993136,-1.1282568690197006,-0.50559689755458814,-0.10597811766551571,-0.16202577610781552,0.98756810997997335,0.077794949843975475,-0.84424789473832373,0.75267727027265696,-1.3616648944437075,0.23592631775990988,0.20309181682992047,1.2921781657578659,1.9759657758317044,-0.13632034645972183,-0.3894543894440905,0.015071534257133406,-0.90261291879286465,2.4340732740021469,0.56309465523971225,-2.2763263456565297,-1.0268047612323532,-2.0309009261804216,-0.059288404767747035,-0.71202030198125765,-0.23760081827028495,-0.086389275457600515,-0.03853207700473827,0.0874403761167514,1.2369929028429452,0.82363786926837523,-0.26114487837357181,-0.85092356888438558,1.671934072375556,0.034448457192333366,1.8163675299059523,-0.34116324463981451,0.30347362839158165,0.31912722595951543,-3.1085939935144502,0.31835573140647377,0.36571310095345527,-0.63540723782882469,1.4296039057529542,-0.75428369456341826,-0.67761663885848322,-1.0919999346431342,0.2151113844574605,-0.83983457686555119,0.19149996078115722,0.35743666648216105,0.30338987222852021,-1.5866508493375255,1.4604450724379503,-0.31483863725842576,0.090671753995780952,-1.3974399915246531,1.0733106810488755,-0.55103180103406801,0.13617450873669784,1.1755860417148483,-0.56941131211133711,-0.54962429831114801,0.88688369439486392,-0.3547477973195714,-1.6588393216114741,-0.39110182838436686,1.3420891277129625,0.23155842041012947,0.52414419015253721,-1.0821948837156741,-1.0428620118011405,-0.95801955006653061,1.0611990106011508,0.02014217890546546,0.2928980848726257,0.48432711661777011,-0.59133808795047849,0.3172126881080739,-0.10533035338169175,-0.44065835904878342,-0.42095144743565466,-1.0456532378424255,-1.6244261396427411,0.94504684484814405,-1.5319713872177274,0.91152203481354155,-0.10738287659693789,0.42148342053686538,-0.49310379923405018,-0.54179087453193819,-0.64026565952621883,-0.78821093142258492,1.3427916497235559,1.0224344871592492,0.72762636277884729,1.1937309325737009,0.088107238374314625,-0.46541630563988207,-1.0685969609160839,0.024066294217956946,-1.0463786087605813,-0.20168139205795557,-0.43649950455240394,0.86748462745567556,0.38747676351390797,-0.35545522642087257,0.11819535783924749,1.0250295368566669,0.56750658070058346,-1.0271780955596002,0.14251622420771007,0.52966923125143228,1.3437415468740814,-0.27520024519824393,-1.6732230178909868,0.37899843232465374,-1.9172795368898814,-1.1231386903181952,-0.43683542574218887,-0.93446262526606161,0.057788744661182091,0.53354534218102123,1.9681723903244559,1.0427233614926676,-0.64596448951179952,0.30709890753495833,0.67901639635141209,1.0058578242024492,-0.035187516304210402,-0.73366906439526525,0.79895045789872077,-0.23604506975877954,-0.4612893252832288,-1.1702053013379432,-0.58714030247840476,-1.4349376040960335,0.62031731147165714,0.36208148788491323,-0.50461634797784793,-1.1002938328653875,-0.90472250412178934,-1.0127488323101583,-0.27852382297362033,-1.2217861710915388,0.85228409076870315,-0.83945509434125698,0.77539637633563008,-1.1174434126938095,-1.0762371247348546,-0.0044209616362388838,0.85369481577361606,1.5313862532467117,-1.700081364855786,0.45417582414507685,0.38204490527087875,0.97671730223156383,-0.15473231322276274,-0.15147596672908378,-1.7163587577941939,2.4158322000208807,-1.5378771404671516,0.59312143871250722,0.85828316021134932,-2.486310031726124,1.1317579967004425,-0.23922964990222692,0.50385590198942232,0.06086440472467259,0.59570895305063798,0.156517675554872,2.7443365330644216,-0.53635279270702296,-1.8014624053718893,1.5890276328237076,-0.77940784805865204,0.63946971138977415,-0.53986783714031994,0.76282984665613618,0.34031830570521243,-0.28000093358615596,-0.13293446578146031,-0.4626379135164953,0.65374991852592845,-0.84362691027541181,1.0182771197825489,-0.3507044465815114,0.6507086824584698,-0.069974461667484611,1.0543483961274795,0.18103868660999722,0.10478337383748576,-0.39997960241024133,-0.43941001986063044,0.29704802324105423,1.8814255188183036,-0.8845562837206713,-1.23368380025323,0.62300151923474667,-0.43783782028504209,-0.37741300217356932,0.32958228181536425,-0.3718768102985216,0.31537938676938876,0.52641541067851705,0.29495277232265743,-0.5397148881820556,-0.25158693915883479,0.2021115200913299,-0.21639871442336139,-0.39861691831940205,0.72227530515223914,0.84871584318785842,-0.96980927500454928,0.6047847678097924,-0.079123225735508854,-0.37175268955919055,0.577905423956387,0.3664358458344491,-0.23650509705987877,-0.35525276415792678,0.67611677406322457,1.3663461713587326,-0.94840243774648281,1.5902650576482842,1.0945829404253746,1.4527973507263177,0.89955066953651652,0.71305802594983925,0.4864673602828623,2.3081884524063931,-1.0943138576123277,-0.28649488706261927,0.31226046363945875,0.34472331942346551,-1.7672677175156688,1.6168184173121125,-0.26431278340205305,1.7028847443833381,-0.039060089103549536,-0.7280664971420634,-0.42639566618484243,0.015359637894938572,-0.03218506985503708,-1.4911062316188877,1.3903666393069809,0.12634114866812712,0.46809425387421977,2.1401355104181259,0.13130688889898737,0.57808411823585026,-1.0130424620576313,0.34638730140687468,-1.2667862250700601,0.063558628776158796,0.010326754440886257,-0.65362726007106531,-0.58076050345153574,0.7560759230554015,0.02031417274613579,1.2681990177595788,0.44391201393147084,1.0559231047377442,-0.010802248827380252,1.0312141774132231,0.4749756257481017,0.25253314387101677,-0.79901080542770497,-0.87271147214721867,-0.15135641126188198,0.42289469122995804,1.1386838546111924,0.41222639196437777,1.2273366321338166,-0.54852372465563981,0.44956368548323067,0.35301603385766611,0.96541347442200687,0.49986333932479216,-1.6921157318238542,-2.2095173792205522,-0.59881833130910589,-0.25551146343474068,0.089788800116644737,-0.72239342379613825,-0.10455637864464941,1.2430429478781788,0.78038718255206108,1.8453108936821563,-0.46047043090246903,-1.0225474295548156,1.6851554624104159,0.40138428230186296,0.66596699472657506,0.0468073792864242,-0.069075073210402932,-0.74402483846161394,1.1886247076410823,-1.2129658492151263,-0.22794886232928646,-1.5433172319477328,-0.025647660376664185,1.3948203616160884,0.91121029063799841,0.7997275981995916,-0.26682442998707318,0.21858414794999345,0.16558777877622299,-0.8562526702492409,0.32113316344267145,-0.59914939391398092,-0.5989858856996324,-0.6072333020252868,-0.65195817112312826,0.43508256622186042,0.032449805105810976,-0.1993979608248887,0.63164189216312505,-0.051949001830058843,2.0011469088627649,-0.76335081334561017,0.75929936951316623,-0.57181519481435683,2.1988639316429688,0.60527415565286224,-0.76435266379032651,0.80561440981995636,-1.0976579216344031,-0.68170951933654778,1.8793416519140744,1.4832141987313983,-0.32699793715079378,-0.8485005879539691,-0.31409426349765018,0.68800601677269702,0.98203193381125153,0.74268535436056782,0.96464733819769688,0.65456895689230943,0.78144036991172738,1.2225810010895226,1.2510785026124209,0.98341649589173352,0.035597391434613372,-1.3317586767597815,-0.45178240974678002,0.13801200727937341,-1.5363663495088895,0.87585928639747079,-0.76846684987633151,0.87205311036339972,-1.6333102945629197,-0.33090407154905882,-0.78790652558864382,0.72571268036579029,-0.32599942259063253,-1.2513503514719289,-0.13841805265517187,1.4955510205790914,-0.44807041316032792,0.29652459581256724,-0.52842988922160428,0.99843930597869346,0.43348834085977755,0.30239619049215838,-0.76698785377961831,0.53828065532870839,-0.81824074931468505,-0.61514293496445804,0.32035517330246555,-0.044939700717399104,1.2943665457123952,0.42367892826728271,-1.2665515418341324,0.36337237477168721,-1.8667649033463607,2.3587252042223144,0.53204446849001996,0.26819081050743004,-1.1185620775054952,0.37117765922239693,1.2385188973327088,-0.84984089598429824,1.0101537609172626,-1.7453157230259444,-0.46742583100079949,0.78509736484382564,0.96270876796040417,-0.18924321514611991,-1.2344044482354919,-0.48526611438856238,1.3198874169986088,-1.2564333408464827,-0.38320225474447678,-0.5196347695208986,0.26481381060359899,-1.4245714210644216,0.85557141946580229,0.30805931568237699,-1.2391515742382648,1.2777266811927424,-0.73663070400258324,-0.067782522507352533,-0.70821806134282039,0.95723363772841996,0.16558479948363611,0.15693629481766852,1.0559609821246203,0.11223890391083068,1.945078264414646,-0.2658614502517887,-0.85640088459518482,0.92869474334265645,0.10569796074930764,-1.5698334259789213,-0.34150577271325017,-0.49688250321051342,1.6078529121215124,-0.26051536634902189,0.091841363572385815,-0.17753131240757336,0.5569416274867538,2.0587401702206121,0.00077534305066553671,1.8216088587194545,1.3133249403382028,-0.067927211289675743,0.77267491851027559,-0.98398403821842695,0.74432413568116906,-1.4305225067433434,-0.36237813077575304,1.7877452686550932,-1.1025827983355909,-1.1705371131816809,0.77126930238408864,0.16780446518502104,0.18934706635307963,0.49226943452266719,-1.5372495082768416,-0.89293026802561959,2.3121863859916161,-0.046432079012314033,-0.72165165969806366,1.340158333696482,0.043122007348154273,0.88438211451701387,-0.9580866996929267,0.48574819371570771,-0.55909096615511844,1.0017991603070973,-0.92123031332523986,0.11434899537120063,0.18189336780376017,0.73858120348647383,-0.70662012936247565,0.75645110005481553,-0.70201720790627897,-1.7814392539920794,0.033269189261669524,0.35945258916206457,0.72418341665370889,0.23897547211515791,-0.17203215341888198,1.9081324157244886,-1.0026570178081498,0.074101769531062456,0.027116490819478724
